,emg,time
0,1497,16390
1,1498,16395
2,1498,16400
3,1497,16404
4,1497,16409
5,1498,16414
6,1499,16419
7,1498,16423
8,1498,16429
9,1499,16434
10,1499,16439
11,1498,16444
12,1497,16448
13,1497,16453
14,1497,16458
15,1497,16463
16,1496,16467
17,1496,16473
18,1496,16478
19,1493,16483
20,1490,16487
21,1490,16492
22,1491,16497
23,1490,16502
24,1489,16506
25,1489,16512
26,1490,16517
27,1489,16522
28,1487,16527
29,1487,16531
30,1488,16536
31,1487,16541
32,1486,16546
33,1486,16550
34,1487,16556
35,1487,16561
36,1485,16566
37,1486,16570
38,1488,16575
39,1489,16580
40,1488,16585
41,1489,16590
42,1490,16594
43,1491,16600
44,1491,16605
45,1491,16610
46,1493,16614
47,1494,16619
48,1494,16624
49,1494,16629
50,1494,16633
51,1494,16638
52,1493,16644
53,1492,16649
54,1494,16653
55,1496,16658
56,1496,16663
57,1496,16668
58,1498,16673
59,1499,16677
60,1500,16683
61,1499,16688
62,1498,16693
63,1498,16697
64,1497,16702
65,1496,16707
66,1497,16712
67,1497,16716
68,1496,16721
69,1496,16727
70,1497,16732
71,1498,16737
72,1498,16741
73,1497,16746
74,1497,16751
75,1498,16756
76,1497,16760
77,1496,16765
78,1496,16771
79,1496,16776
80,1496,16780
81,1496,16785
82,1496,16790
83,1498,16795
84,1497,16799
85,1495,16804
86,1494,16809
87,1496,16815
88,1498,16820
89,1497,16824
90,1497,16829
91,1497,16834
92,1497,16839
93,1496,16843
94,1496,16848
95,1497,16854
96,1497,16859
97,1496,16863
98,1495,16868
99,1495,16873
100,1494,16878
101,1493,16883
102,1492,16887
103,1493,16892
104,1493,16898
105,1494,16903
106,1492,16907
107,1493,16912
108,1494,16917
109,1495,16922
110,1495,16926
111,1496,16931
112,1497,16936
113,1498,16942
114,1497,16946
115,1497,16951
116,1499,16956
117,1499,16961
118,1498,16966
119,1499,16970
120,1502,16975
121,1505,16980
122,1506,16986
123,1508,16990
124,1509,16995
125,1506,17000
126,1500,17005
127,1493,17009
128,1489,17014
129,1486,17019
130,1484,17025
131,1483,17030
132,1485,17034
133,1486,17039
134,1487,17044
135,1489,17049
136,1491,17053
137,1492,17058
138,1493,17063
139,1493,17069
140,1495,17073
141,1496,17078
142,1496,17083
143,1495,17088
144,1496,17092
145,1497,17097
146,1497,17102
147,1496,17107
148,1497,17113
149,1498,17117
150,1497,17122
151,1495,17127
152,1496,17132
153,1497,17136
154,1497,17141
155,1495,17146
156,1495,17152
157,1496,17156
158,1495,17161
159,1493,17166
160,1493,17171
161,1493,17176
162,1493,17180
163,1491,17185
164,1491,17190
165,1492,17196
166,1491,17200
167,1489,17205
168,1489,17210
169,1490,17215
170,1488,17219
171,1485,17224
172,1484,17229
173,1484,17234
174,1483,17239
175,1483,17244
176,1482,17249
177,1483,17254
178,1483,17259
179,1483,17263
180,1483,17268
181,1485,17273
182,1486,17278
183,1486,17283
184,1485,17288
185,1487,17293
186,1489,17298
187,1489,17302
188,1489,17307
189,1490,17312
190,1490,17317
191,1490,17323
192,1489,17327
193,1491,17332
194,1493,17337
195,1494,17342
196,1495,17346
197,1496,17351
198,1497,17356
199,1497,17361
200,1496,17366
201,1498,17371
202,1499,17376
203,1498,17381
204,1498,17385
205,1498,17390
206,1498,17395
207,1498,17400
208,1497,17405
209,1497,17410
210,1498,17415
211,1499,17420
212,1497,17425
213,1497,17429
214,1497,17434
215,1497,17439
216,1495,17444
217,1495,17448
218,1496,17454
219,1496,17459
220,1495,17464
221,1495,17469
222,1495,17473
223,1495,17478
224,1494,17483
225,1493,17488
226,1495,17492
227,1495,17498
228,1495,17503
229,1493,17508
230,1493,17512
231,1494,17517
232,1494,17522
233,1494,17527
234,1495,17531
235,1496,17537
236,1496,17542
237,1494,17547
238,1494,17552
239,1495,17556
240,1494,17561
241,1493,17566
242,1492,17571
243,1492,17575
244,1491,17581
245,1489,17586
246,1489,17591
247,1489,17595
248,1490,17600
249,1490,17605
250,1490,17610
251,1491,17615
252,1492,17619
253,1493,17625
254,1494,17630
255,1496,17635
256,1497,17639
257,1496,17644
258,1496,17649
259,1498,17654
260,1499,17658
261,1498,17664
262,1497,17669
263,1499,17674
264,1503,17678
265,1506,17683
266,1508,17688
267,1509,17693
268,1509,17698
269,1504,17702
270,1496,17708
271,1491,17713
272,1488,17718
273,1487,17722
274,1487,17727
275,1489,17732
276,1492,17737
277,1494,17741
278,1494,17746
279,1496,17752
280,1498,17757
281,1498,17762
282,1497,17766
283,1498,17771
284,1499,17776
285,1499,17781
286,1497,17785
287,1497,17790
288,1498,17796
289,1497,17801
290,1495,17805
291,1494,17810
292,1495,17815
293,1494,17820
294,1494,17824
295,1496,17829
296,1498,17835
297,1499,17840
298,1499,17845
299,1499,17849
300,1500,17854
301,1500,17859
302,1499,17864
303,1497,17868
304,1498,17873
305,1498,17879
306,1496,17884
307,1493,17888
308,1493,17893
309,1492,17898
310,1490,17903
311,1486,17908
312,1483,17912
313,1482,17917
314,1482,17923
315,1482,17928
316,1483,17932
317,1484,17937
318,1483,17942
319,1482,17947
320,1481,17951
321,1481,17956
322,1479,17961
323,1479,17967
324,1480,17971
325,1482,17976
326,1485,17981
327,1486,17986
328,1488,17991
329,1490,17995
330,1489,18000
331,1488,18006
332,1488,18011
333,1491,18015
334,1494,18020
335,1495,18025
336,1495,18030
337,1495,18034
338,1492,18039
339,1486,18044
340,1481,18050
341,1479,18055
342,1479,18059
343,1482,18064
344,1484,18069
345,1485,18074
346,1484,18078
347,1484,18083
348,1488,18088
349,1495,18094
350,1499,18098
351,1501,18103
352,1501,18108
353,1500,18113
354,1495,18117
355,1484,18122
356,1471,18127
357,1464,18132
358,1465,18138
359,1472,18142
360,1480,18147
361,1488,18152
362,1494,18157
363,1497,18161
364,1499,18166
365,1503,18171
366,1508,18177
367,1511,18181
368,1512,18186
369,1510,18191
370,1509,18196
371,1507,18201
372,1504,18205
373,1496,18210
374,1487,18215
375,1470,18221
376,1457,18225
377,1457,18230
378,1466,18235
379,1472,18240
380,1479,18244
381,1486,18249
382,1493,18254
383,1498,18259
384,1501,18264
385,1505,18269
386,1508,18274
387,1510,18279
388,1506,18284
389,1502,18288
390,1500,18293
391,1499,18298
392,1499,18304
393,1495,18308
394,1490,18313
395,1483,18318
396,1472,18323
397,1467,18327
398,1470,18332
399,1479,18337
400,1484,18342
401,1488,18348
402,1494,18352
403,1500,18357
404,1505,18362
405,1511,18367
406,1516,18371
407,1520,18376
408,1519,18381
409,1516,18386
410,1511,18391
411,1505,18396
412,1497,18401
413,1489,18406
414,1482,18410
415,1480,18415
416,1482,18420
417,1482,18425
418,1484,18430
419,1488,18435
420,1492,18440
421,1492,18445
422,1490,18450
423,1485,18454
424,1482,18459
425,1478,18464
426,1479,18469
427,1480,18473
428,1480,18479
429,1475,18484
430,1465,18489
431,1451,18494
432,1438,18498
433,1436,18503
434,1445,18508
435,1458,18513
436,1468,18518
437,1477,18523
438,1487,18528
439,1498,18533
440,1503,18537
441,1503,18542
442,1500,18547
443,1499,18552
444,1494,18556
445,1480,18562
446,1454,18567
447,1448,18572
448,1455,18577
449,1471,18581
450,1476,18586
451,1479,18591
452,1483,18596
453,1485,18600
454,1486,18606
455,1492,18611
456,1496,18616
457,1490,18620
458,1478,18625
459,1467,18630
460,1459,18635
461,1457,18640
462,1462,18644
463,1467,18650
464,1473,18655
465,1480,18660
466,1485,18664
467,1487,18669
468,1484,18674
469,1472,18679
470,1457,18683
471,1448,18689
472,1434,18694
473,1420,18699
474,1424,18703
475,1445,18708
476,1464,18713
477,1474,18718
478,1484,18723
479,1494,18727
480,1500,18733
481,1506,18738
482,1508,18743
483,1504,18747
484,1498,18752
485,1493,18757
486,1490,18762
487,1492,18766
488,1496,18771
489,1501,18777
490,1496,18782
491,1480,18787
492,1469,18791
493,1468,18796
494,1473,18801
495,1472,18806
496,1467,18810
497,1460,18816
498,1454,18821
499,1455,18826
500,1464,18830
501,1463,18835
502,1448,18840
503,1446,18845
504,1463,18849
505,1479,18854
506,1487,18860
507,1489,18865
508,1491,18870
509,1498,18874
510,1502,18879
511,1494,18884
512,1486,18889
513,1480,18893
514,1474,18898
515,1470,18904
516,1462,18909
517,1460,18913
518,1458,18918
519,1462,18923
520,1463,18928
521,1453,18933
522,1449,18937
523,1450,18942
524,1452,18948
525,1465,18953
526,1480,18957
527,1493,18962
528,1493,18967
529,1493,18972
530,1503,18976
531,1504,18981
532,1500,18987
533,1482,18992
534,1470,18996
535,1470,19001
536,1452,19006
537,1445,19011
538,1450,19016
539,1459,19020
540,1467,19025
541,1483,19031
542,1496,19036
543,1490,19040
544,1493,19045
545,1509,19050
546,1521,19055
547,1521,19059
548,1519,19064
549,1509,19069
550,1503,19075
551,1502,19080
552,1495,19084
553,1462,19089
554,1450,19094
555,1461,19099
556,1482,19103
557,1455,19108
558,1429,19113
559,1431,19119
560,1471,19123
561,1500,19128
562,1522,19133
563,1527,19138
564,1515,19142
565,1493,19147
566,1488,19152
567,1501,19158
568,1510,19163
569,1518,19167
570,1524,19172
571,1517,19177
572,1502,19182
573,1498,19186
574,1503,19191
575,1507,19196
576,1500,19202
577,1483,19206
578,1468,19211
579,1455,19216
580,1448,19221
581,1461,19226
582,1473,19230
583,1489,19235
584,1508,19240
585,1520,19246
586,1525,19250
587,1530,19255
588,1525,19260
589,1509,19265
590,1497,19269
591,1495,19274
592,1493,19279
593,1485,19284
594,1471,19289
595,1449,19294
596,1443,19299
597,1456,19304
598,1472,19309
599,1482,19313
600,1495,19318
601,1490,19323
602,1468,19329
603,1448,19333
604,1448,19338
605,1464,19343
606,1465,19348
607,1462,19352
608,1479,19357
609,1500,19362
610,1514,19367
611,1515,19373
612,1507,19377
613,1490,19382
614,1468,19387
615,1473,19392
616,1485,19396
617,1497,19401
618,1511,19406
619,1523,19411
620,1510,19416
621,1487,19421
622,1477,19426
623,1486,19431
624,1503,19436
625,1505,19440
626,1507,19445
627,1495,19450
628,1486,19456
629,1488,19460
630,1505,19465
631,1522,19470
632,1528,19475
633,1516,19479
634,1504,19484
635,1509,19489
636,1521,19494
637,1530,19499
638,1531,19504
639,1518,19509
640,1497,19514
641,1491,19519
642,1503,19523
643,1521,19528
644,1529,19533
645,1531,19538
646,1527,19543
647,1515,19548
648,1492,19553
649,1484,19558
650,1502,19562
651,1511,19567
652,1516,19572
653,1520,19577
654,1526,19581
655,1528,19587
656,1524,19592
657,1524,19597
658,1526,19602
659,1519,19606
660,1509,19611
661,1505,19616
662,1508,19621
663,1513,19625
664,1519,19631
665,1522,19636
666,1525,19641
667,1519,19645
668,1517,19650
669,1520,19655
670,1522,19660
671,1522,19665
672,1525,19670
673,1527,19675
674,1522,19680
675,1520,19685
676,1523,19689
677,1524,19694
678,1521,19699
679,1512,19704
680,1519,19708
681,1527,19714
682,1539,19719
683,1538,19724
684,1530,19728
685,1519,19733
686,1514,19738
687,1516,19743
688,1519,19748
689,1526,19752
690,1524,19758
691,1499,19763
692,1492,19768
693,1503,19772
694,1512,19777
695,1515,19782
696,1512,19787
697,1506,19791
698,1497,19796
699,1503,19802
700,1518,19807
701,1529,19812
702,1539,19816
703,1549,19821
704,1555,19826
705,1556,19831
706,1551,19835
707,1548,19841
708,1542,19846
709,1539,19851
710,1538,19855
711,1536,19860
712,1526,19865
713,1521,19870
714,1521,19875
715,1524,19879
716,1515,19885
717,1505,19890
718,1506,19895
719,1514,19899
720,1517,19904
721,1516,19909
722,1501,19914
723,1489,19918
724,1489,19923
725,1498,19929
726,1512,19934
727,1519,19938
728,1528,19943
729,1534,19948
730,1532,19953
731,1531,19958
732,1530,19962
733,1528,19968
734,1527,19973
735,1528,19978
736,1525,19982
737,1524,19987
738,1517,19992
739,1495,19997
740,1468,20001
741,1464,20006
742,1481,20012
743,1500,20017
744,1511,20022
745,1522,20026
746,1526,20031
747,1529,20036
748,1524,20041
749,1522,20045
750,1523,20050
751,1524,20056
752,1526,20061
753,1519,20065
754,1519,20070
755,1524,20075
756,1524,20080
757,1524,20084
758,1519,20089
759,1518,20094
760,1516,20100
761,1517,20105
762,1516,20109
763,1517,20114
764,1518,20119
765,1516,20124
766,1514,20128
767,1512,20133
768,1503,20139
769,1492,20144
770,1484,20148
771,1492,20153
772,1503,20158
773,1512,20163
774,1510,20168
775,1507,20172
776,1510,20177
777,1516,20183
778,1520,20188
779,1520,20192
780,1527,20197
781,1524,20202
782,1517,20207
783,1516,20211
784,1517,20216
785,1516,20221
786,1505,20227
787,1503,20231
788,1507,20236
789,1510,20241
790,1514,20246
791,1524,20251
792,1527,20255
793,1523,20260
794,1521,20265
795,1517,20271
796,1517,20275
797,1525,20280
798,1512,20285
799,1493,20290
800,1490,20294
801,1494,20299
802,1498,20304
803,1505,20310
804,1517,20315
805,1526,20319
806,1529,20324
807,1526,20329
808,1516,20334
809,1504,20338
810,1502,20343
811,1497,20348
812,1495,20354
813,1498,20358
814,1503,20363
815,1505,20368
816,1505,20373
817,1505,20377
818,1504,20382
819,1506,20387
820,1509,20392
821,1508,20398
822,1504,20402
823,1506,20407
824,1506,20412
825,1505,20417
826,1502,20421
827,1498,20426
828,1497,20431
829,1498,20436
830,1499,20441
831,1500,20446
832,1500,20451
833,1501,20456
834,1498,20461
835,1495,20465
836,1493,20470
837,1491,20475
838,1493,20481
839,1493,20485
840,1495,20490
841,1505,20495
842,1507,20500
843,1505,20504
844,1499,20509
845,1495,20514
846,1502,20519
847,1500,20525
848,1495,20529
849,1493,20534
850,1492,20539
851,1491,20544
852,1492,20548
853,1495,20553
854,1497,20558
855,1495,20563
856,1491,20568
857,1492,20573
858,1495,20578
859,1497,20583
860,1494,20587
861,1492,20592
862,1502,20597
863,1510,20602
864,1508,20608
865,1499,20612
866,1493,20617
867,1493,20622
868,1495,20627
869,1497,20631
870,1499,20636
871,1499,20641
872,1499,20646
873,1501,20651
874,1504,20656
875,1507,20661
876,1506,20666
877,1505,20671
878,1510,20675
879,1500,20680
880,1492,20685
881,1490,20690
882,1492,20695
883,1498,20700
884,1498,20705
885,1496,20710
886,1498,20714
887,1500,20719
888,1502,20724
889,1504,20729
890,1507,20733
891,1513,20739
892,1518,20744
893,1516,20749
894,1513,20754
895,1509,20758
896,1496,20763
897,1479,20768
898,1476,20773
899,1481,20777
900,1486,20783
901,1491,20788
902,1500,20793
903,1505,20797
904,1506,20802
905,1503,20807
906,1505,20812
907,1505,20816
908,1507,20822
909,1506,20827
910,1505,20832
911,1504,20837
912,1499,20841
913,1496,20846
914,1500,20851
915,1501,20856
916,1501,20860
917,1498,20866
918,1493,20871
919,1489,20876
920,1487,20880
921,1488,20885
922,1489,20890
923,1500,20895
924,1510,20900
925,1514,20904
926,1510,20910
927,1511,20915
928,1513,20920
929,1515,20924
930,1514,20929
931,1510,20934
932,1500,20939
933,1489,20943
934,1482,20948
935,1479,20954
936,1474,20959
937,1471,20963
938,1470,20968
939,1465,20973
940,1452,20978
941,1442,20983
942,1448,20987
943,1463,20993
944,1484,20998
945,1498,21003
946,1506,21007
947,1506,21012
948,1506,21017
949,1504,21022
950,1503,21026
951,1505,21031
952,1514,21037
953,1519,21042
954,1515,21047
955,1506,21051
956,1501,21056
957,1494,21061
958,1491,21066
959,1499,21070
960,1502,21075
961,1499,21081
962,1489,21086
963,1483,21090
964,1490,21095
965,1498,21100
966,1503,21105
967,1505,21109
968,1505,21114
969,1503,21120
970,1509,21125
971,1513,21130
972,1509,21134
973,1503,21139
974,1496,21144
975,1493,21149
976,1496,21153
977,1496,21158
978,1491,21164
979,1484,21169
980,1479,21173
981,1484,21178
982,1487,21183
983,1487,21188
984,1487,21193
985,1484,21197
986,1482,21202
987,1485,21208
988,1486,21213
989,1487,21217
990,1486,21222
991,1486,21227
992,1492,21232
993,1496,21236
994,1493,21241
995,1490,21246
996,1487,21252
997,1487,21256
998,1495,21261
999,1498,21266
1000,1493,21271
1001,1489,21276
1002,1483,21280
1003,1485,21285
1004,1488,21291
1005,1489,21296
1006,1487,21300
1007,1484,21305
1008,1483,21310
1009,1485,21315
1010,1488,21319
1011,1487,21324
1012,1485,21329
1013,1485,21335
1014,1490,21340
1015,1497,21344
1016,1494,21349
1017,1492,21354
1018,1487,21359
1019,1485,21363
1020,1482,21368
1021,1474,21373
1022,1465,21379
1023,1462,21383
1024,1468,21388
1025,1482,21393
1026,1490,21398
1027,1496,21402
1028,1498,21407
1029,1499,21412
1030,1499,21417
1031,1501,21423
1032,1505,21427
1033,1504,21432
1034,1501,21437
1035,1494,21442
1036,1485,21446
1037,1482,21451
1038,1485,21456
1039,1485,21462
1040,1486,21466
1041,1486,21471
1042,1489,21476
1043,1492,21481
1044,1496,21486
1045,1498,21490
1046,1498,21495
1047,1497,21500
1048,1493,21506
1049,1493,21510
1050,1501,21515
1051,1503,21520
1052,1504,21525
1053,1502,21529
1054,1503,21534
1055,1505,21539
1056,1508,21544
1057,1502,21549
1058,1491,21554
1059,1480,21559
1060,1469,21564
1061,1460,21569
1062,1458,21573
1063,1461,21578
1064,1464,21583
1065,1468,21588
1066,1479,21593
1067,1489,21598
1068,1488,21603
1069,1482,21608
1070,1478,21612
1071,1477,21617
1072,1477,21622
1073,1478,21627
1074,1480,21633
1075,1484,21637
1076,1487,21642
1077,1490,21647
1078,1492,21652
1079,1490,21656
1080,1500,21661
1081,1505,21666
1082,1502,21671
1083,1499,21676
1084,1501,21681
1085,1503,21686
1086,1502,21691
1087,1498,21695
1088,1495,21700
1089,1493,21705
1090,1493,21710
1091,1496,21715
1092,1497,21720
1093,1497,21725
1094,1498,21730
1095,1497,21735
1096,1498,21739
1097,1505,21744
1098,1508,21749
1099,1504,21754
1100,1499,21758
1101,1490,21764
1102,1488,21769
1103,1484,21774
1104,1485,21779
1105,1485,21783
1106,1483,21788
1107,1484,21793
1108,1490,21798
1109,1494,21803
1110,1496,21808
1111,1500,21813
1112,1500,21818
1113,1499,21822
1114,1501,21827
1115,1505,21832
1116,1503,21837
1117,1493,21841
1118,1487,21847
1119,1484,21852
1120,1484,21857
1121,1482,21862
1122,1482,21866
1123,1484,21871
1124,1485,21876
1125,1485,21881
1126,1483,21885
1127,1483,21891
1128,1487,21896
1129,1491,21901
1130,1489,21905
1131,1488,21910
1132,1489,21915
1133,1491,21920
1134,1488,21925
1135,1483,21929
1136,1483,21935
1137,1482,21940
1138,1479,21945
1139,1477,21949
1140,1483,21954
1141,1489,21959
1142,1486,21964
1143,1483,21968
1144,1482,21974
1145,1488,21979
1146,1487,21984
1147,1476,21988
1148,1470,21993
1149,1474,21998
1150,1479,22003
1151,1482,22008
1152,1486,22012
1153,1490,22018
1154,1497,22023
1155,1498,22028
1156,1494,22032
1157,1493,22037
1158,1491,22042
1159,1489,22047
1160,1492,22051
1161,1502,22056
1162,1503,22062
1163,1496,22067
1164,1495,22072
1165,1497,22076
1166,1493,22081
1167,1486,22086
1168,1481,22091
1169,1482,22095
1170,1483,22100
1171,1483,22106
1172,1482,22111
1173,1483,22115
1174,1483,22120
1175,1484,22125
1176,1496,22130
1177,1502,22135
1178,1502,22139
1179,1497,22145
1180,1496,22150
1181,1494,22155
1182,1487,22159
1183,1477,22164
1184,1470,22169
1185,1467,22174
1186,1468,22178
1187,1471,22183
1188,1472,22189
1189,1476,22194
1190,1479,22198
1191,1480,22203
1192,1486,22208
1193,1493,22213
1194,1494,22218
1195,1491,22222
1196,1492,22227
1197,1500,22233
1198,1506,22238
1199,1502,22242
1200,1500,22247
1201,1504,22252
1202,1501,22257
1203,1494,22261
1204,1491,22266
1205,1492,22272
1206,1494,22277
1207,1496,22282
1208,1496,22286
1209,1496,22291
1210,1498,22296
1211,1499,22301
1212,1498,22305
1213,1501,22310
1214,1506,22316
1215,1513,22321
1216,1516,22325
1217,1511,22330
1218,1505,22335
1219,1499,22340
1220,1502,22344
1221,1503,22349
1222,1504,22354
1223,1505,22360
1224,1503,22365
1225,1500,22369
1226,1498,22374
1227,1499,22379
1228,1499,22384
1229,1501,22388
1230,1511,22393
1231,1513,22398
1232,1508,22404
1233,1498,22408
1234,1492,22413
1235,1491,22418
1236,1487,22423
1237,1484,22428
1238,1483,22432
1239,1485,22437
1240,1486,22443
1241,1487,22448
1242,1489,22452
1243,1491,22457
1244,1491,22462
1245,1490,22467
1246,1490,22471
1247,1492,22476
1248,1495,22481
1249,1494,22487
1250,1488,22491
1251,1490,22496
1252,1492,22501
1253,1487,22506
1254,1483,22511
1255,1483,22515
1256,1483,22520
1257,1482,22525
1258,1482,22531
1259,1486,22535
1260,1488,22540
1261,1490,22545
1262,1491,22550
1263,1492,22554
1264,1497,22559
1265,1497,22564
1266,1493,22569
1267,1490,22575
1268,1493,22579
1269,1502,22584
1270,1499,22589
1271,1494,22594
1272,1492,22598
1273,1491,22603
1274,1492,22608
1275,1493,22614
1276,1495,22618
1277,1495,22623
1278,1494,22628
1279,1494,22633
1280,1493,22637
1281,1489,22642
1282,1486,22647
1283,1488,22652
1284,1494,22658
1285,1504,22662
1286,1507,22667
1287,1507,22672
1288,1505,22677
1289,1501,22681
1290,1491,22686
1291,1487,22691
1292,1486,22696
1293,1489,22701
1294,1493,22706
1295,1493,22711
1296,1493,22716
1297,1497,22721
1298,1501,22725
1299,1505,22730
1300,1508,22735
1301,1507,22740
1302,1504,22745
1303,1496,22750
1304,1488,22755
1305,1487,22760
1306,1488,22764
1307,1482,22769
1308,1473,22774
1309,1460,22779
1310,1453,22784
1311,1454,22789
1312,1461,22794
1313,1467,22799
1314,1474,22804
1315,1478,22808
1316,1485,22813
1317,1488,22818
1318,1491,22823
1319,1492,22828
1320,1493,22833
1321,1496,22838
1322,1496,22843
1323,1494,22847
1324,1498,22852
1325,1512,22857
1326,1510,22862
1327,1505,22866
1328,1501,22872
1329,1503,22877
1330,1505,22882
1331,1502,22887
1332,1497,22891
1333,1497,22896
1334,1497,22901
1335,1497,22906
1336,1499,22910
1337,1501,22916
1338,1503,22921
1339,1502,22926
1340,1501,22930
1341,1503,22935
1342,1505,22940
1343,1517,22945
1344,1519,22950
1345,1514,22955
1346,1510,22960
1347,1506,22965
1348,1502,22970
1349,1501,22974
1350,1501,22979
1351,1500,22984
1352,1499,22989
1353,1500,22993
1354,1500,22999
1355,1499,23004
1356,1495,23009
1357,1502,23013
1358,1510,23018
1359,1507,23023
1360,1498,23028
1361,1490,23033
1362,1487,23037
1363,1483,23043
1364,1480,23048
1365,1478,23053
1366,1478,23057
1367,1476,23062
1368,1475,23067
1369,1477,23072
1370,1478,23076
1371,1479,23081
1372,1480,23087
1373,1488,23092
1374,1493,23097
1375,1485,23101
1376,1476,23106
1377,1470,23111
1378,1473,23116
1379,1478,23120
1380,1480,23126
1381,1482,23131
1382,1485,23136
1383,1487,23140
1384,1489,23145
1385,1489,23150
1386,1489,23155
1387,1491,23159
1388,1492,23164
1389,1490,23170
1390,1486,23175
1391,1490,23180
1392,1496,23184
1393,1497,23189
1394,1495,23194
1395,1492,23199
1396,1492,23203
1397,1490,23208
1398,1489,23214
1399,1489,23219
1400,1488,23223
1401,1487,23228
1402,1488,23233
1403,1491,23238
1404,1492,23243
1405,1489,23247
1406,1489,23252
1407,1492,23258
1408,1496,23263
1409,1501,23267
1410,1503,23272
1411,1503,23277
1412,1497,23282
1413,1489,23286
1414,1482,23291
1415,1482,23297
1416,1481,23302
1417,1481,23307
1418,1484,23311
1419,1487,23316
1420,1490,23321
1421,1491,23326
1422,1490,23330
1423,1492,23335
1424,1495,23341
1425,1495,23346
1426,1494,23350
1427,1499,23355
1428,1503,23360
1429,1509,23365
1430,1511,23369
1431,1510,23374
1432,1500,23379
1433,1487,23385
1434,1474,23390
1435,1469,23394
1436,1464,23399
1437,1463,23404
1438,1463,23409
1439,1466,23413
1440,1470,23418
1441,1476,23424
1442,1480,23429
1443,1483,23433
1444,1483,23438
1445,1484,23443
1446,1493,23448
1447,1497,23452
1448,1497,23457
1449,1497,23462
1450,1494,23468
1451,1495,23473
1452,1496,23477
1453,1494,23482
1454,1493,23487
1455,1494,23492
1456,1497,23496
1457,1502,23501
1458,1506,23506
1459,1507,23512
1460,1506,23516
1461,1509,23521
1462,1514,23526
1463,1513,23531
1464,1510,23536
1465,1506,23540
1466,1500,23545
1467,1498,23550
1468,1499,23556
1469,1499,23560
1470,1499,23565
1471,1500,23570
1472,1503,23575
1473,1509,23579
1474,1515,23584
1475,1516,23589
1476,1514,23595
1477,1511,23600
1478,1510,23604
1479,1509,23609
1480,1507,23614
1481,1505,23619
1482,1503,23623
1483,1501,23628
1484,1500,23633
1485,1501,23639
1486,1500,23643
1487,1497,23648
1488,1495,23653
1489,1494,23658
1490,1495,23662
1491,1501,23667
1492,1499,23672
1493,1493,23677
1494,1486,23683
1495,1482,23687
1496,1481,23692
1497,1483,23697
1498,1484,23702
1499,1483,23706
1500,1484,23711
1501,1485,23716
1502,1485,23721
1503,1485,23726
1504,1483,23731
1505,1485,23736
1506,1490,23741
1507,1492,23745
1508,1489,23750
1509,1487,23755
1510,1481,23760
1511,1477,23766
1512,1480,23770
1513,1488,23775
1514,1491,23780
1515,1488,23785
1516,1488,23789
1517,1488,23794
1518,1488,23799
1519,1487,23804
1520,1485,23809
1521,1490,23814
1522,1491,23819
1523,1487,23824
1524,1482,23829
1525,1480,23833
1526,1483,23838
1527,1489,23843
1528,1493,23848
1529,1491,23853
1530,1489,23858
1531,1485,23863
1532,1484,23868
1533,1484,23872
1534,1487,23877
1535,1489,23882
1536,1489,23887
1537,1491,23891
1538,1495,23897
1539,1497,23902
1540,1494,23907
1541,1492,23912
1542,1488,23916
1543,1487,23921
1544,1488,23926
1545,1490,23931
1546,1492,23936
1547,1491,23941
1548,1490,23946
1549,1489,23951
1550,1489,23955
1551,1492,23960
1552,1493,23965
1553,1493,23970
1554,1497,23975
1555,1499,23980
1556,1497,23985
1557,1496,23990
1558,1494,23995
1559,1493,23999
1560,1494,24004
1561,1493,24009
1562,1492,24014
1563,1495,24018
1564,1496,24024
1565,1498,24029
1566,1503,24034
1567,1510,24038
1568,1514,24043
1569,1513,24048
1570,1504,24053
1571,1496,24058
1572,1487,24062
1573,1481,24068
1574,1475,24073
1575,1470,24078
1576,1466,24082
1577,1461,24087
1578,1462,24092
1579,1469,24097
1580,1477,24101
1581,1482,24107
1582,1486,24112
1583,1491,24117
1584,1493,24122
1585,1494,24126
1586,1493,24131
1587,1503,24136
1588,1508,24141
1589,1505,24145
1590,1502,24151
1591,1497,24156
1592,1492,24161
1593,1491,24165
1594,1493,24170
1595,1497,24175
1596,1500,24180
1597,1502,24184
1598,1503,24189
1599,1505,24195
1600,1505,24200
1601,1505,24205
1602,1512,24209
1603,1513,24214
1604,1512,24219
1605,1507,24224
1606,1504,24228
1607,1502,24233
1608,1507,24239
1609,1508,24244
1610,1507,24248
1611,1506,24253
1612,1505,24258
1613,1503,24263
1614,1502,24268
1615,1502,24272
1616,1502,24278
1617,1508,24283
1618,1510,24288
1619,1510,24292
1620,1512,24297
1621,1514,24302
1622,1507,24307
1623,1501,24311
1624,1497,24316
1625,1495,24322
1626,1493,24327
1627,1492,24331
1628,1491,24336
1629,1488,24341
1630,1489,24346
1631,1495,24351
1632,1500,24355
1633,1499,24360
1634,1494,24366
1635,1486,24371
1636,1485,24375
1637,1487,24380
1638,1486,24385
1639,1484,24390
1640,1482,24394
1641,1482,24399
1642,1480,24404
1643,1480,24410
1644,1482,24415
1645,1483,24419
1646,1484,24424
1647,1487,24429
1648,1489,24434
1649,1489,24438
1650,1491,24443
1651,1493,24449
1652,1493,24454
1653,1492,24458
1654,1488,24463
1655,1490,24468
1656,1491,24473
1657,1491,24477
1658,1492,24482
1659,1492,24487
1660,1491,24493
1661,1492,24498
1662,1492,24502
1663,1489,24507
1664,1490,24512
1665,1493,24517
1666,1494,24521
1667,1496,24526
1668,1503,24531
1669,1502,24537
1670,1498,24541
1671,1498,24546
1672,1496,24551
1673,1493,24556
1674,1493,24561
1675,1493,24565
1676,1493,24570
1677,1494,24576
1678,1494,24581
1679,1494,24585
1680,1494,24590
1681,1499,24595
1682,1500,24600
1683,1496,24604
1684,1502,24609
1685,1506,24614
1686,1502,24620
1687,1498,24624
1688,1493,24629
1689,1494,24634
1690,1497,24639
1691,1493,24644
1692,1489,24648
1693,1488,24653
1694,1491,24658
1695,1492,24664
1696,1490,24668
1697,1487,24673
1698,1491,24678
1699,1493,24683
1700,1497,24687
1701,1499,24692
1702,1502,24697
1703,1512,24702
1704,1514,24708
1705,1505,24712
1706,1494,24717
1707,1482,24722
1708,1474,24727
1709,1469,24731
1710,1468,24736
1711,1467,24741
1712,1469,24747
1713,1473,24751
1714,1477,24756
1715,1479,24761
1716,1482,24766
1717,1483,24770
1718,1488,24775
1719,1494,24780
1720,1496,24785
1721,1495,24791
1722,1503,24795
1723,1510,24800
1724,1507,24805
1725,1501,24810
1726,1498,24814
1727,1499,24819
1728,1498,24824
1729,1496,24829
1730,1497,24834
1731,1500,24839
1732,1500,24844
1733,1501,24849
1734,1502,24854
1735,1501,24858
1736,1502,24863
1737,1508,24868
1738,1511,24873
1739,1510,24878
1740,1506,24883
1741,1500,24888
1742,1508,24893
1743,1508,24897
1744,1504,24902
1745,1502,24907
1746,1501,24912
1747,1504,24916
1748,1506,24922
1749,1506,24927
1750,1505,24932
1751,1505,24937
1752,1504,24941
1753,1503,24946
1754,1501,24951
1755,1504,24956
1756,1508,24961
1757,1516,24966
1758,1517,24971
1759,1513,24976
1760,1500,24980
1761,1491,24985
1762,1486,24990
1763,1486,24995
1764,1487,25000
1765,1487,25005
1766,1488,25010
1767,1490,25015
1768,1491,25020
1769,1491,25024
1770,1489,25029
1771,1488,25034
1772,1487,25039
1773,1483,25043
1774,1489,25049
1775,1492,25054
1776,1492,25059
1777,1488,25063
1778,1486,25068
1779,1489,25073
1780,1491,25078
1781,1491,25083
1782,1491,25088
1783,1490,25093
1784,1491,25098
1785,1490,25103
1786,1488,25107
1787,1488,25112
1788,1493,25117
1789,1497,25122
1790,1497,25126
1791,1495,25132
1792,1493,25137
1793,1500,25142
1794,1502,25147
1795,1497,25151
1796,1492,25156
1797,1488,25161
1798,1484,25166
1799,1482,25170
1800,1482,25176
1801,1484,25181
1802,1483,25186
1803,1485,25190
1804,1491,25195
1805,1495,25200
1806,1496,25205
1807,1495,25209
1808,1502,25214
1809,1506,25220
1810,1504,25225
1811,1498,25230
1812,1495,25234
1813,1494,25239
1814,1496,25244
1815,1493,25249
1816,1491,25253
1817,1491,25259
1818,1490,25264
1819,1490,25269
1820,1490,25273
1821,1492,25278
1822,1494,25283
1823,1493,25288
1824,1492,25293
1825,1494,25297
1826,1499,25303
1827,1501,25308
1828,1498,25313
1829,1497,25317
1830,1502,25322
1831,1495,25327
1832,1485,25332
1833,1482,25336
1834,1484,25341
1835,1489,25347
1836,1496,25352
1837,1503,25356
1838,1505,25361
1839,1502,25366
1840,1498,25371
1841,1489,25376
1842,1483,25380
1843,1476,25385
1844,1474,25391
1845,1471,25396
1846,1470,25400
1847,1470,25405
1848,1476,25410
1849,1482,25415
1850,1483,25419
1851,1481,25424
1852,1483,25430
1853,1487,25435
1854,1491,25440
1855,1494,25444
1856,1495,25449
1857,1497,25454
1858,1499,25459
1859,1499,25463
1860,1502,25468
1861,1503,25474
1862,1501,25479
1863,1500,25483
1864,1508,25488
1865,1516,25493
1866,1515,25498
1867,1507,25503
1868,1499,25507
1869,1497,25512
1870,1501,25518
1871,1501,25523
1872,1499,25527
1873,1499,25532
1874,1501,25537
1875,1503,25542
1876,1504,25546
1877,1504,25551
1878,1503,25556
1879,1509,25562
1880,1514,25566
1881,1510,25571
1882,1508,25576
1883,1502,25581
1884,1501,25586
1885,1509,25590
1886,1507,25595
1887,1501,25601
1888,1497,25606
1889,1495,25610
1890,1496,25615
1891,1499,25620
1892,1500,25625
1893,1500,25629
1894,1500,25634
1895,1501,25639
1896,1498,25645
1897,1495,25650
1898,1493,25654
1899,1493,25659
1900,1494,25664
1901,1501,25669
1902,1501,25673
1903,1496,25678
1904,1492,25683
1905,1491,25689
1906,1489,25693
1907,1487,25698
1908,1484,25703
1909,1482,25708
1910,1483,25713
1911,1486,25717
1912,1488,25722
1913,1488,25728
1914,1489,25733
1915,1489,25737
1916,1490,25742
1917,1491,25747
1918,1497,25752
1919,1497,25756
1920,1496,25761
1921,1488,25766
1922,1478,25772
1923,1478,25776
1924,1482,25781
1925,1485,25786
1926,1488,25791
1927,1492,25796
1928,1495,25800
1929,1495,25805
1930,1495,25810
1931,1495,25816
1932,1495,25820
1933,1493,25825
1934,1495,25830
1935,1506,25835
1936,1510,25839
1937,1504,25844
1938,1495,25849
1939,1492,25854
1940,1492,25859
1941,1494,25864
1942,1494,25869
1943,1495,25874
1944,1495,25879
1945,1494,25883
1946,1492,25888
1947,1494,25893
1948,1500,25899
1949,1502,25903
1950,1500,25908
1951,1497,25913
1952,1494,25918
1953,1491,25922
1954,1489,25927
1955,1487,25932
1956,1487,25937
1957,1488,25943
1958,1486,25947
1959,1487,25952
1960,1490,25957
1961,1491,25962
1962,1491,25966
1963,1491,25971
1964,1494,25976
1965,1499,25981
1966,1505,25986
1967,1505,25991
1968,1504,25996
1969,1501,26001
1970,1496,26005
1971,1491,26010
1972,1485,26015
1973,1478,26020
1974,1472,26025
1975,1466,26030
1976,1465,26035
1977,1467,26040
1978,1469,26045
1979,1473,26049
1980,1476,26054
1981,1478,26059
1982,1481,26064
1983,1487,26068
1984,1494,26074
1985,1501,26079
1986,1500,26084
1987,1494,26089
1988,1492,26093
1989,1495,26098
1990,1495,26103
1991,1496,26108
1992,1496,26113
1993,1497,26118
1994,1499,26123
1995,1498,26128
1996,1499,26132
1997,1502,26137
1998,1503,26142
1999,1502,26147
2000,1503,26151
2001,1512,26157
2002,1517,26162
2003,1514,26167
2004,1509,26172
2005,1503,26176
2006,1501,26181
2007,1501,26186
2008,1499,26191
2009,1500,26195
2010,1503,26201
2011,1504,26206
2012,1503,26211
2013,1504,26215
2014,1507,26220
2015,1507,26225
2016,1507,26230
2017,1507,26235
2018,1515,26240
2019,1524,26245
2020,1521,26250
2021,1513,26255
2022,1505,26259
2023,1497,26264
2024,1492,26269
2025,1496,26274
2026,1495,26278
2027,1490,26284
2028,1489,26289
2029,1491,26294
2030,1494,26298
2031,1494,26303
2032,1493,26308
2033,1493,26313
2034,1492,26318
2035,1492,26322
2036,1491,26328
2037,1492,26333
2038,1494,26338
2039,1495,26342
2040,1497,26347
2041,1495,26352
2042,1493,26357
2043,1492,26361
2044,1490,26366
2045,1489,26372
2046,1490,26377
2047,1492,26382
2048,1492,26386
2049,1492,26391
2050,1492,26396
2051,1494,26401
2052,1493,26405
2053,1492,26411
2054,1494,26416
2055,1499,26421
2056,1498,26425
2057,1500,26430
2058,1497,26435
2059,1495,26440
2060,1495,26444
2061,1493,26449
2062,1491,26455
2063,1490,26460
2064,1489,26465
2065,1491,26469
2066,1493,26474
2067,1496,26479
2068,1496,26484
2069,1496,26488
2070,1497,26493
2071,1500,26499
2072,1500,26504
2073,1497,26508
2074,1498,26513
2075,1500,26518
2076,1498,26523
2077,1492,26528
2078,1490,26532
2079,1493,26537
2080,1495,26543
2081,1496,26548
2082,1496,26552
2083,1498,26557
2084,1499,26562
2085,1496,26567
2086,1492,26571
2087,1500,26576
2088,1503,26582
2089,1500,26587
2090,1495,26591
2091,1494,26596
2092,1494,26601
2093,1491,26606
2094,1491,26611
2095,1495,26615
2096,1497,26620
2097,1497,26626
2098,1498,26631
2099,1497,26635
2100,1492,26640
2101,1486,26645
2102,1479,26650
2103,1474,26654
2104,1476,26659
2105,1482,26664
2106,1480,26670
2107,1475,26675
2108,1477,26679
2109,1484,26684
2110,1485,26689
2111,1487,26694
2112,1488,26698
2113,1490,26703
2114,1491,26708
2115,1494,26714
2116,1497,26718
2117,1499,26723
2118,1498,26728
2119,1498,26733
2120,1506,26737
2121,1511,26742
2122,1508,26747
2123,1504,26753
2124,1498,26758
2125,1495,26762
2126,1495,26767
2127,1496,26772
2128,1498,26777
2129,1500,26781
2130,1502,26786
2131,1501,26791
2132,1501,26797
2133,1502,26801
2134,1503,26806
2135,1506,26811
2136,1509,26816
2137,1510,26821
2138,1511,26825
2139,1506,26830
2140,1503,26835
2141,1499,26841
2142,1498,26845
2143,1498,26850
2144,1499,26855
2145,1498,26860
2146,1498,26864
2147,1498,26869
2148,1499,26874
2149,1501,26880
2150,1499,26884
2151,1495,26889
2152,1497,26894
2153,1499,26899
2154,1498,26904
2155,1495,26908
2156,1494,26913
2157,1500,26918
2158,1504,26924
2159,1500,26928
2160,1491,26933
2161,1486,26938
2162,1483,26943
2163,1478,26947
2164,1478,26952
2165,1482,26957
2166,1484,26962
2167,1485,26967
2168,1485,26972
2169,1487,26977
2170,1492,26982
2171,1494,26987
2172,1493,26991
2173,1497,26996
2174,1506,27001
2175,1502,27006
2176,1499,27011
2177,1492,27016
2178,1485,27021
2179,1480,27026
2180,1481,27030
2181,1484,27035
2182,1489,27040
2183,1491,27045
2184,1492,27051
2185,1494,27055
2186,1502,27060
2187,1505,27065
2188,1504,27070
2189,1502,27074
2190,1499,27079
2191,1495,27084
2192,1493,27089
2193,1495,27094
2194,1498,27099
2195,1495,27104
2196,1494,27109
2197,1491,27114
2198,1489,27118
2199,1492,27123
2200,1492,27128
2201,1491,27133
2202,1489,27138
2203,1491,27143
2204,1492,27148
2205,1492,27153
2206,1492,27157
2207,1493,27162
2208,1491,27167
2209,1489,27172
2210,1492,27176
2211,1497,27182
2212,1497,27187
2213,1496,27192
2214,1497,27197
2215,1500,27201
2216,1500,27206
2217,1496,27211
2218,1497,27216
2219,1500,27220
2220,1500,27226
2221,1499,27231
2222,1501,27236
2223,1504,27240
2224,1499,27245
2225,1490,27250
2226,1483,27255
2227,1476,27260
2228,1474,27265
2229,1474,27270
2230,1476,27275
2231,1477,27280
2232,1475,27284
2233,1476,27289
2234,1482,27294
2235,1485,27299
2236,1486,27303
2237,1486,27309
2238,1488,27314
2239,1490,27319
2240,1492,27323
2241,1496,27328
2242,1496,27333
2243,1499,27338
2244,1503,27343
2245,1503,27347
2246,1502,27353
2247,1505,27358
2248,1508,27363
2249,1506,27367
2250,1499,27372
2251,1497,27377
2252,1498,27382
2253,1498,27386
2254,1500,27392
2255,1504,27397
2256,1504,27402
2257,1504,27407
2258,1503,27411
2259,1504,27416
2260,1508,27421
2261,1511,27426
2262,1510,27430
2263,1510,27436
2264,1513,27441
2265,1511,27446
2266,1504,27450
2267,1496,27455
2268,1493,27460
2269,1494,27465
2270,1497,27469
2271,1499,27474
2272,1500,27480
2273,1499,27485
2274,1499,27490
2275,1501,27494
2276,1505,27499
2277,1506,27504
2278,1500,27509
2279,1495,27513
2280,1501,27518
2281,1501,27524
2282,1497,27529
2283,1489,27533
2284,1486,27538
2285,1486,27543
2286,1486,27548
2287,1486,27552
2288,1487,27557
2289,1487,27563
2290,1485,27568
2291,1485,27573
2292,1486,27577
2293,1487,27582
2294,1485,27587
2295,1491,27592
2296,1499,27596
2297,1500,27601
2298,1493,27607
2299,1486,27612
2300,1486,27616
2301,1488,27621
2302,1488,27626
2303,1487,27631
2304,1488,27636
2305,1490,27640
2306,1489,27645
2307,1488,27651
2308,1489,27656
2309,1490,27660
2310,1491,27665
2311,1491,27670
2312,1495,27675
2313,1495,27679
2314,1492,27684
2315,1495,27689
2316,1501,27695
2317,1500,27699
2318,1494,27704
2319,1491,27709
2320,1489,27714
2321,1490,27719
2322,1489,27723
2323,1491,27728
2324,1492,27734
2325,1496,27739
2326,1496,27743
2327,1498,27748
2328,1502,27753
2329,1501,27758
2330,1498,27762
2331,1494,27767
2332,1487,27772
2333,1488,27778
2334,1493,27783
2335,1491,27787
2336,1490,27792
2337,1490,27797
2338,1489,27802
2339,1493,27806
2340,1497,27811
2341,1503,27816
2342,1505,27822
2343,1507,27826
2344,1506,27831
2345,1503,27836
2346,1497,27841
2347,1488,27846
2348,1476,27850
2349,1468,27855
2350,1465,27860
2351,1466,27866
2352,1468,27870
2353,1470,27875
2354,1474,27880
2355,1475,27885
2356,1480,27889
2357,1490,27894
2358,1493,27899
2359,1492,27905
2360,1492,27909
2361,1492,27914
2362,1492,27919
2363,1496,27924
2364,1500,27929
2365,1500,27933
2366,1500,27938
2367,1498,27943
2368,1496,27949
2369,1499,27953
2370,1502,27958
2371,1502,27963
2372,1499,27968
2373,1499,27972
2374,1497,27977
2375,1498,27982
2376,1499,27987
2377,1499,27993
2378,1502,27997
2379,1504,28002
2380,1503,28007
2381,1504,28012
2382,1503,28016
2383,1507,28021
2384,1510,28026
2385,1510,28032
2386,1510,28036
2387,1508,28041
2388,1508,28046
2389,1505,28051
2390,1501,28055
2391,1502,28060
2392,1503,28065
2393,1503,28070
2394,1501,28076
2395,1501,28080
2396,1500,28085
2397,1499,28090
2398,1497,28095
2399,1496,28099
2400,1497,28104
2401,1498,28109
2402,1497,28114
2403,1496,28119
2404,1493,28124
2405,1492,28129
2406,1493,28134
2407,1493,28138
2408,1492,28143
2409,1489,28148
2410,1490,28153
2411,1491,28158
2412,1492,28163
2413,1490,28168
2414,1490,28173
2415,1490,28178
2416,1491,28182
2417,1492,28187
2418,1492,28192
2419,1492,28197
2420,1493,28201
2421,1492,28207
2422,1489,28212
2423,1492,28217
2424,1494,28222
2425,1492,28226
2426,1490,28231
2427,1489,28236
2428,1487,28241
2429,1487,28246
2430,1487,28251
2431,1492,28256
2432,1493,28261
2433,1491,28265
2434,1489,28270
2435,1500,28275
2436,1503,28280
2437,1498,28284
2438,1489,28290
2439,1487,28295
2440,1488,28300
2441,1490,28305
2442,1492,28309
2443,1494,28314
2444,1493,28319
2445,1492,28324
2446,1490,28328
2447,1490,28334
2448,1492,28339
2449,1493,28344
2450,1497,28348
2451,1497,28353
2452,1494,28358
2453,1490,28363
2454,1487,28368
2455,1491,28372
2456,1499,28378
2457,1499,28383
2458,1496,28388
2459,1495,28392
2460,1497,28397
2461,1501,28402
2462,1503,28407
2463,1505,28411
2464,1507,28417
2465,1506,28422
2466,1496,28427
2467,1490,28432
2468,1486,28436
2469,1479,28441
2470,1472,28446
2471,1468,28451
2472,1471,28455
2473,1473,28461
2474,1475,28466
2475,1478,28471
2476,1480,28475
2477,1482,28480
2478,1483,28485
2479,1485,28490
2480,1489,28494
2481,1493,28499
2482,1495,28505
2483,1503,28510
2484,1510,28515
2485,1511,28519
2486,1506,28524
2487,1499,28529
2488,1497,28534
2489,1501,28538
2490,1499,28544
2491,1498,28549
2492,1499,28554
2493,1501,28558
2494,1502,28563
2495,1502,28568
2496,1503,28573
2497,1503,28577
2498,1504,28582
2499,1508,28588
2500,1511,28593
2501,1510,28598
2502,1512,28602
2503,1508,28607
2504,1501,28612
2505,1497,28617
2506,1501,28621
2507,1504,28626
2508,1505,28632
2509,1506,28637
2510,1506,28641
2511,1504,28646
2512,1501,28651
2513,1502,28656
2514,1500,28661
2515,1500,28665
2516,1501,28670
2517,1501,28676
2518,1496,28681
2519,1488,28685
2520,1484,28690
2521,1484,28695
2522,1484,28700
2523,1486,28704
2524,1488,28709
2525,1489,28715
2526,1491,28720
2527,1492,28725
2528,1492,28729
2529,1492,28734
2530,1492,28739
2531,1491,28744
2532,1489,28748
2533,1487,28753
2534,1493,28759
2535,1502,28764
2536,1502,28768
2537,1498,28773
2538,1493,28778
2539,1491,28783
2540,1485,28787
2541,1481,28792
2542,1480,28797
2543,1483,28803
2544,1484,28808
2545,1483,28812
2546,1484,28817
2547,1485,28822
2548,1489,28827
2549,1489,28831
2550,1489,28836
2551,1492,28841
2552,1490,28847
2553,1489,28851
2554,1488,28856
2555,1487,28861
2556,1487,28866
2557,1485,28870
2558,1487,28875
2559,1490,28880
2560,1489,28886
2561,1488,28891
2562,1488,28895
2563,1489,28900
2564,1489,28905
2565,1487,28910
2566,1488,28914
2567,1494,28919
2568,1500,28924
2569,1499,28930
2570,1496,28934
2571,1496,28939
2572,1495,28944
2573,1492,28949
2574,1488,28954
2575,1488,28958
2576,1488,28963
2577,1487,28968
2578,1487,28974
2579,1487,28978
2580,1487,28983
2581,1489,28988
2582,1494,28993
2583,1497,28997
2584,1502,29002
2585,1504,29007
2586,1503,29012
2587,1500,29017
2588,1492,29022
2589,1485,29027
2590,1479,29032
2591,1472,29037
2592,1459,29041
2593,1450,29046
2594,1454,29051
2595,1468,29057
2596,1481,29061
2597,1489,29066
2598,1500,29071
2599,1513,29076
2600,1518,29080
2601,1515,29085
2602,1509,29090
2603,1506,29095
2604,1506,29101
2605,1506,29105
2606,1505,29110
2607,1506,29115
2608,1506,29120
2609,1505,29124
2610,1503,29129
2611,1503,29134
2612,1509,29139
2613,1511,29144
2614,1509,29149
2615,1506,29154
2616,1506,29159
2617,1508,29164
2618,1508,29168
2619,1505,29173
2620,1502,29178
2621,1501,29184
2622,1499,29188
2623,1500,29193
2624,1502,29198
2625,1505,29203
2626,1504,29207
2627,1503,29212
2628,1503,29217
2629,1503,29222
2630,1502,29227
2631,1500,29232
2632,1501,29237
2633,1501,29242
2634,1499,29247
2635,1496,29251
2636,1498,29256
2637,1499,29261
2638,1501,29266
2639,1500,29271
2640,1499,29276
2641,1499,29281
2642,1498,29286
2643,1495,29290
2644,1496,29295
2645,1497,29300
2646,1497,29305
2647,1499,29310
2648,1501,29315
2649,1506,29320
2650,1508,29325
2651,1506,29330
2652,1503,29334
2653,1502,29339
2654,1501,29344
2655,1500,29349
2656,1501,29353
2657,1504,29359
2658,1506,29364
2659,1506,29369
2660,1506,29373
2661,1507,29378
2662,1508,29383
2663,1506,29388
2664,1507,29393
2665,1514,29398
2666,1521,29403
2667,1521,29408
2668,1519,29413
2669,1516,29417
2670,1513,29422
2671,1510,29427
2672,1510,29432
2673,1511,29436
2674,1512,29442
2675,1513,29447
2676,1516,29452
2677,1516,29457
2678,1517,29461
2679,1515,29466
2680,1515,29471
2681,1520,29476
2682,1516,29480
2683,1506,29486
2684,1503,29491
2685,1504,29496
2686,1508,29500
2687,1511,29505
2688,1517,29510
2689,1518,29515
2690,1518,29519
2691,1516,29524
2692,1510,29530
2693,1504,29535
2694,1500,29540
2695,1503,29544
2696,1502,29549
2697,1503,29554
2698,1504,29559
2699,1506,29563
2700,1504,29569
2701,1503,29574
2702,1508,29579
2703,1509,29583
2704,1506,29588
2705,1506,29593
2706,1506,29598
2707,1501,29603
2708,1490,29607
2709,1480,29613
2710,1474,29618
2711,1466,29623
2712,1467,29627
2713,1468,29632
2714,1469,29637
2715,1474,29642
2716,1479,29646
2717,1485,29651
2718,1492,29657
2719,1493,29662
2720,1492,29667
2721,1493,29671
2722,1497,29676
2723,1503,29681
2724,1506,29686
2725,1502,29690
2726,1499,29696
2727,1498,29701
2728,1500,29706
2729,1500,29710
2730,1501,29715
2731,1505,29720
2732,1504,29725
2733,1500,29729
2734,1499,29734
2735,1501,29740
2736,1506,29745
2737,1509,29750
2738,1513,29754
2739,1515,29759
2740,1517,29764
2741,1518,29769
2742,1518,29773
2743,1521,29778
2744,1521,29784
2745,1515,29789
2746,1505,29793
2747,1494,29798
2748,1488,29803
2749,1483,29808
2750,1486,29813
2751,1489,29817
2752,1495,29822
2753,1499,29828
2754,1504,29833
2755,1509,29837
2756,1512,29842
2757,1511,29847
2758,1508,29852
2759,1509,29856
2760,1516,29861
2761,1517,29867
2762,1512,29872
2763,1503,29877
2764,1495,29881
2765,1488,29886
2766,1477,29891
2767,1476,29896
2768,1476,29900
2769,1480,29905
2770,1483,29911
2771,1490,29916
2772,1494,29920
2773,1498,29925
2774,1500,29930
2775,1503,29935
2776,1508,29939
2777,1510,29944
2778,1508,29949
2779,1502,29955
2780,1482,29960
2781,1466,29964
2782,1457,29969
2783,1447,29974
2784,1450,29979
2785,1464,29983
2786,1476,29988
2787,1490,29993
2788,1499,29999
2789,1508,30003
2790,1513,30008
2791,1516,30013
2792,1523,30018
2793,1523,30023
2794,1512,30027
2795,1502,30032
2796,1487,30038
2797,1477,30043
2798,1463,30047
2799,1450,30052
2800,1450,30057
2801,1457,30062
2802,1465,30066
2803,1479,30071
2804,1492,30076
2805,1504,30082
2806,1510,30086
2807,1516,30091
2808,1513,30096
2809,1509,30101
2810,1505,30106
2811,1502,30110
2812,1486,30115
2813,1463,30120
2814,1443,30126
2815,1431,30130
2816,1433,30135
2817,1434,30140
2818,1451,30145
2819,1468,30149
2820,1490,30154
2821,1507,30159
2822,1519,30164
2823,1521,30170
2824,1519,30174
2825,1514,30179
2826,1510,30184
2827,1502,30189
2828,1491,30193
2829,1479,30198
2830,1450,30203
2831,1428,30209
2832,1428,30213
2833,1445,30218
2834,1461,30223
2835,1472,30228
2836,1485,30232
2837,1502,30237
2838,1518,30242
2839,1526,30247
2840,1530,30253
2841,1530,30257
2842,1526,30262
2843,1512,30267
2844,1495,30272
2845,1476,30276
2846,1448,30281
2847,1425,30286
2848,1433,30291
2849,1451,30296
2850,1478,30301
2851,1496,30306
2852,1513,30311
2853,1525,30316
2854,1533,30320
2855,1534,30325
2856,1534,30330
2857,1517,30336
2858,1483,30340
2859,1454,30345
2860,1456,30350
2861,1471,30355
2862,1457,30359
2863,1446,30364
2864,1454,30369
2865,1475,30374
2866,1500,30380
2867,1514,30384
2868,1521,30389
2869,1525,30394
2870,1531,30399
2871,1533,30403
2872,1532,30408
2873,1524,30413
2874,1515,30418
2875,1491,30423
2876,1434,30428
2877,1369,30433
2878,1359,30438
2879,1393,30442
2880,1445,30447
2881,1478,30452
2882,1496,30457
2883,1517,30462
2884,1538,30467
2885,1549,30472
2886,1553,30477
2887,1551,30482
2888,1547,30486
2889,1543,30491
2890,1541,30496
2891,1526,30501
2892,1517,30505
2893,1490,30511
2894,1452,30516
2895,1429,30521
2896,1417,30526
2897,1433,30530
2898,1474,30535
2899,1509,30540
2900,1535,30545
2901,1550,30550
2902,1558,30555
2903,1560,30560
2904,1557,30565
2905,1553,30569
2906,1545,30574
2907,1522,30579
2908,1501,30584
2909,1473,30588
2910,1433,30594
2911,1425,30599
2912,1446,30604
2913,1477,30609
2914,1511,30613
2915,1532,30618
2916,1545,30623
2917,1552,30628
2918,1554,30632
2919,1545,30638
2920,1531,30643
2921,1517,30648
2922,1499,30652
2923,1452,30657
2924,1412,30662
2925,1412,30667
2926,1440,30672
2927,1476,30676
2928,1512,30682
2929,1537,30687
2930,1556,30692
2931,1566,30696
2932,1570,30701
2933,1570,30706
2934,1564,30711
2935,1549,30715
2936,1526,30721
2937,1460,30726
2938,1412,30731
2939,1404,30736
2940,1417,30740
2941,1398,30745
2942,1410,30750
2943,1449,30755
2944,1490,30759
2945,1514,30765
2946,1533,30770
2947,1547,30775
2948,1554,30779
2949,1557,30784
2950,1552,30789
2951,1531,30794
2952,1496,30798
2953,1446,30803
2954,1426,30809
2955,1423,30814
2956,1402,30819
2957,1407,30823
2958,1444,30828
2959,1479,30833
2960,1516,30838
2961,1541,30842
2962,1555,30848
2963,1559,30853
2964,1555,30858
2965,1542,30862
2966,1531,30867
2967,1524,30872
2968,1471,30877
2969,1408,30882
2970,1393,30886
2971,1427,30892
2972,1472,30897
2973,1495,30902
2974,1493,30906
2975,1502,30911
2976,1521,30916
2977,1543,30921
2978,1550,30925
2979,1544,30930
2980,1537,30936
2981,1514,30941
2982,1487,30945
2983,1477,30950
2984,1458,30955
2985,1454,30960
2986,1458,30965
2987,1467,30969
2988,1482,30974
2989,1499,30980
2990,1520,30985
2991,1540,30989
2992,1553,30994
2993,1552,30999
2994,1532,31004
2995,1494,31008
2996,1483,31013
2997,1461,31019
2998,1415,31024
2999,1389,31029
3000,1391,31033
3001,1425,31038
3002,1449,31043
3003,1474,31048
3004,1508,31052
3005,1540,31057
3006,1564,31063
3007,1575,31068
3008,1574,31072
3009,1572,31077
3010,1574,31082
3011,1549,31087
3012,1476,31091
3013,1435,31096
3014,1444,31101
3015,1471,31107
3016,1468,31112
3017,1472,31116
3018,1491,31121
3019,1510,31126
3020,1521,31131
3021,1525,31135
3022,1533,31140
3023,1547,31145
3024,1542,31151
3025,1509,31155
3026,1485,31160
3027,1475,31165
3028,1435,31170
3029,1419,31175
3030,1453,31179
3031,1493,31184
3032,1524,31190
3033,1545,31195
3034,1566,31199
3035,1576,31204
3036,1550,31209
3037,1517,31214
3038,1511,31218
3039,1517,31223
3040,1508,31228
3041,1480,31234
3042,1457,31238
3043,1462,31243
3044,1459,31248
3045,1469,31253
3046,1495,31258
3047,1521,31262
3048,1542,31267
3049,1554,31272
3050,1562,31278
3051,1545,31282
3052,1505,31287
3053,1476,31292
3054,1484,31297
3055,1497,31301
3056,1462,31306
3057,1435,31311
3058,1439,31316
3059,1457,31322
3060,1491,31326
3061,1519,31331
3062,1540,31336
3063,1560,31341
3064,1575,31345
3065,1572,31350
3066,1564,31355
3067,1552,31361
3068,1522,31365
3069,1494,31370
3070,1481,31375
3071,1463,31380
3072,1435,31384
3073,1404,31389
3074,1420,31394
3075,1456,31399
3076,1510,31405
3077,1543,31409
3078,1571,31414
3079,1586,31419
3080,1591,31424
3081,1571,31428
3082,1520,31433
3083,1496,31438
3084,1500,31443
3085,1487,31448
3086,1469,31453
3087,1439,31458
3088,1428,31463
3089,1443,31468
3090,1488,31472
3091,1526,31477
3092,1554,31482
3093,1570,31488
3094,1576,31492
3095,1575,31497
3096,1533,31502
3097,1467,31507
3098,1451,31511
3099,1475,31516
3100,1489,31521
3101,1471,31526
3102,1463,31532
3103,1476,31536
3104,1507,31541
3105,1525,31546
3106,1536,31551
3107,1545,31555
3108,1551,31560
3109,1540,31565
3110,1525,31570
3111,1485,31575
3112,1410,31580
3113,1370,31585
3114,1388,31590
3115,1426,31594
3116,1442,31599
3117,1468,31604
3118,1507,31609
3119,1539,31614
3120,1564,31619
3121,1573,31624
3122,1570,31629
3123,1551,31634
3124,1527,31638
3125,1485,31643
3126,1457,31648
3127,1437,31653
3128,1452,31657
3129,1488,31663
3130,1515,31668
3131,1527,31673
3132,1533,31678
3133,1536,31682
3134,1544,31687
3135,1541,31692
3136,1530,31697
3137,1489,31702
3138,1424,31707
3139,1390,31712
3140,1394,31717
3141,1434,31721
3142,1475,31726
3143,1509,31731
3144,1534,31736
3145,1556,31740
3146,1560,31746
3147,1557,31751
3148,1555,31756
3149,1545,31761
3150,1498,31765
3151,1462,31770
3152,1434,31775
3153,1419,31780
3154,1413,31784
3155,1443,31790
3156,1484,31795
3157,1517,31800
3158,1533,31804
3159,1543,31809
3160,1549,31814
3161,1550,31819
3162,1549,31824
3163,1516,31828
3164,1447,31834
3165,1410,31839
3166,1428,31844
3167,1449,31848
3168,1442,31853
3169,1443,31858
3170,1470,31863
3171,1503,31867
3172,1520,31873
3173,1522,31878
3174,1518,31883
3175,1531,31888
3176,1547,31892
3177,1554,31897
3178,1516,31902
3179,1472,31907
3180,1470,31911
3181,1489,31917
3182,1509,31922
3183,1525,31927
3184,1537,31931
3185,1536,31936
3186,1526,31941
3187,1508,31946
3188,1472,31951
3189,1461,31955
3190,1453,31961
3191,1461,31966
3192,1472,31971
3193,1468,31975
3194,1449,31980
3195,1460,31985
3196,1497,31990
3197,1527,31994
3198,1535,31995
3199,1532,32005
3200,1534,32010
3201,1547,32014
3202,1545,32019
3203,1525,32024
3204,1503,32029
3205,1489,32034
3206,1483,32038
3207,1449,32044
3208,1430,32049
3209,1443,32054
3210,1453,32058
3211,1468,32063
3212,1497,32068
3213,1523,32073
3214,1539,32077
3215,1542,32082
3216,1541,32088
3217,1533,32093
3218,1504,32098
3219,1458,32102
3220,1435,32107
3221,1431,32112
3222,1448,32117
3223,1458,32121
3224,1470,32126
3225,1497,32132
3226,1521,32137
3227,1522,32141
3228,1525,32146
3229,1533,32151
3230,1537,32156
3231,1511,32161
3232,1465,32165
3233,1429,32171
3234,1432,32176
3235,1445,32181
3236,1452,32185
3237,1468,32190
3238,1488,32195
3239,1504,32200
3240,1521,32204
3241,1534,32209
3242,1545,32215
3243,1549,32220
3244,1527,32224
3245,1488,32229
3246,1459,32234
3247,1441,32239
3248,1421,32244
3249,1434,32248
3250,1461,32253
3251,1484,32259
3252,1501,32264
3253,1523,32268
3254,1545,32273
3255,1554,32278
3256,1536,32283
3257,1485,32287
3258,1447,32292
3259,1456,32297
3260,1477,32303
3261,1475,32308
3262,1464,32312
3263,1462,32317
3264,1474,32322
3265,1499,32327
3266,1522,32331
3267,1527,32336
3268,1503,32342
3269,1473,32347
3270,1458,32351
3271,1476,32356
3272,1512,32361
3273,1523,32366
3274,1495,32370
3275,1464,32375
3276,1460,32380
3277,1467,32386
3278,1473,32391
3279,1481,32395
3280,1492,32400
3281,1497,32405
3282,1511,32410
3283,1509,32414
3284,1503,32419
3285,1510,32424
3286,1522,32430
3287,1503,32434
3288,1465,32439
3289,1447,32444
3290,1458,32449
3291,1473,32454
3292,1478,32458
3293,1487,32463
3294,1483,32468
3295,1474,32474
3296,1480,32478
3297,1505,32483
3298,1530,32488
3299,1516,32493
3300,1491,32497
3301,1488,32502
3302,1505,32507
3303,1516,32513
3304,1511,32517
3305,1446,32522
3306,1386,32527
3307,1391,32532
3308,1437,32537
3309,1485,32541
3310,1504,32546
3311,1519,32551
3312,1539,32557
3313,1557,32561
3314,1562,32566
3315,1544,32571
3316,1505,32576
3317,1491,32580
3318,1487,32585
3319,1469,32590
3320,1448,32595
3321,1453,32601
3322,1480,32605
3323,1507,32610
3324,1515,32615
3325,1511,32620
3326,1508,32624
3327,1507,32629
3328,1513,32634
3329,1519,32640
3330,1483,32644
3331,1434,32649
3332,1413,32654
3333,1435,32659
3334,1464,32663
3335,1479,32668
3336,1489,32673
3337,1504,32678
3338,1513,32684
3339,1523,32688
3340,1527,32693
3341,1514,32698
3342,1484,32703
3343,1478,32707
3344,1500,32712
3345,1511,32717
3346,1491,32722
3347,1468,32727
3348,1469,32732
3349,1490,32737
3350,1495,32742
3351,1457,32747
3352,1417,32751
3353,1423,32756
3354,1461,32761
3355,1493,32766
3356,1524,32771
3357,1539,32776
3358,1508,32781
3359,1479,32786
3360,1491,32790
3361,1504,32795
3362,1496,32800
3363,1491,32805
3364,1503,32809
3365,1524,32815
3366,1513,32820
3367,1472,32825
3368,1454,32830
3369,1471,32834
3370,1487,32839
3371,1490,32844
3372,1482,32849
3373,1478,32854
3374,1492,32859
3375,1501,32864
3376,1490,32869
3377,1473,32873
3378,1427,32878
3379,1417,32883
3380,1449,32888
3381,1499,32893
3382,1529,32898
3383,1550,32903
3384,1558,32908
3385,1563,32913
3386,1543,32917
3387,1490,32922
3388,1459,32927
3389,1462,32932
3390,1480,32936
3391,1489,32942
3392,1501,32947
3393,1517,32952
3394,1510,32956
3395,1501,32961
3396,1482,32966
3397,1447,32971
3398,1448,32976
3399,1461,32980
3400,1428,32986
3401,1395,32991
3402,1420,32996
3403,1470,33000
3404,1522,33005
3405,1553,33010
3406,1570,33015
3407,1580,33019
3408,1558,33025
3409,1500,33030
3410,1480,33035
3411,1488,33039
3412,1485,33044
3413,1454,33049
3414,1427,33054
3415,1438,33059
3416,1452,33063
3417,1469,33069
3418,1508,33074
3419,1541,33079
3420,1558,33083
3421,1560,33088
3422,1563,33093
3423,1547,33098
3424,1491,33102
3425,1428,33107
3426,1415,33113
3427,1447,33118
3428,1451,33123
3429,1423,33127
3430,1413,33132
3431,1444,33137
3432,1502,33142
3433,1543,33146
3434,1570,33152
3435,1579,33157
3436,1578,33162
3437,1572,33166
3438,1563,33171
3439,1537,33176
3440,1472,33181
3441,1408,33186
3442,1405,33190
3443,1429,33196
3444,1462,33201
3445,1493,33206
3446,1518,33210
3447,1525,33215
3448,1525,33220
3449,1529,33225
3450,1531,33229
3451,1506,33234
3452,1477,33240
3453,1466,33245
3454,1457,33249
3455,1424,33254
3456,1396,33259
3457,1402,33264
3458,1426,33269
3459,1458,33273
3460,1497,33278
3461,1528,33284
3462,1556,33289
3463,1570,33293
3464,1570,33298
3465,1556,33303
3466,1511,33308
3467,1450,33312
3468,1427,33317
3469,1422,33323
3470,1431,33328
3471,1433,33332
3472,1451,33337
3473,1476,33342
3474,1488,33347
3475,1505,33352
3476,1542,33356
3477,1557,33361
3478,1552,33367
3479,1551,33372
3480,1548,33376
3481,1537,33381
3482,1479,33386
3483,1446,33391
3484,1451,33395
3485,1458,33400
3486,1463,33405
3487,1472,33411
3488,1492,33416
3489,1513,33420
3490,1520,33425
3491,1511,33430
3492,1521,33435
3493,1531,33439
3494,1521,33444
3495,1509,33449
3496,1494,33455
3497,1494,33459
3498,1500,33464
3499,1488,33469
3500,1460,33474
3501,1461,33479
3502,1482,33483
3503,1484,33488
3504,1457,33494
3505,1451,33499
3506,1479,33503
3507,1513,33508
3508,1540,33513
3509,1551,33518
3510,1552,33522
3511,1520,33527
3512,1456,33532
3513,1418,33538
3514,1423,33542
3515,1422,33547
3516,1438,33552
3517,1472,33557
3518,1517,33562
3519,1547,33566
3520,1569,33571
3521,1576,33576
3522,1558,33582
3523,1540,33586
3524,1518,33591
3525,1465,33596
3526,1414,33601
3527,1415,33605
3528,1451,33610
3529,1469,33615
3530,1468,33620
3531,1484,33626
3532,1517,33630
3533,1547,33635
3534,1565,33640
3535,1556,33645
3536,1510,33649
3537,1494,33654
3538,1494,33659
3539,1470,33665
3540,1431,33669
3541,1416,33674
3542,1431,33679
3543,1465,33684
3544,1496,33688
3545,1520,33693
3546,1535,33698
3547,1551,33703
3548,1560,33709
3549,1548,33713
3550,1519,33718
3551,1474,33723
3552,1419,33728
3553,1403,33732
3554,1412,33737
3555,1440,33742
3556,1435,33747
3557,1439,33752
3558,1473,33757
3559,1524,33762
3560,1554,33767
3561,1577,33772
3562,1589,33776
3563,1586,33781
3564,1565,33786
3565,1530,33792
3566,1464,33796
3567,1406,33801
3568,1397,33806
3569,1436,33811
3570,1495,33815
3571,1519,33820
3572,1492,33825
3573,1486,33830
3574,1513,33835
3575,1547,33840
3576,1564,33845
3577,1558,33850
3578,1516,33855
3579,1498,33859
3580,1498,33864
3581,1493,33869
3582,1441,33874
3583,1410,33879
3584,1419,33884
3585,1447,33889
3586,1472,33894
3587,1512,33898
3588,1540,33903
3589,1554,33908
3590,1561,33913
3591,1562,33917
3592,1539,33923
3593,1502,33928
3594,1424,33933
3595,1392,33938
3596,1412,33942
3597,1432,33947
3598,1429,33952
3599,1441,33957
3600,1485,33961
3601,1519,33967
3602,1536,33972
3603,1561,33977
3604,1569,33981
3605,1551,33986
3606,1531,33991
3607,1524,33996
3608,1518,34001
3609,1476,34006
3610,1429,34011
3611,1425,34016
3612,1451,34021
3613,1477,34025
3614,1493,34030
3615,1514,34035
3616,1531,34040
3617,1546,34044
3618,1539,34050
3619,1501,34055
3620,1470,34060
3621,1469,34064
3622,1480,34069
3623,1467,34074
3624,1466,34079
3625,1459,34084
3626,1464,34088
3627,1487,34094
3628,1520,34099
3629,1528,34104
3630,1524,34108
3631,1527,34113
3632,1539,34118
3633,1552,34123
3634,1532,34127
3635,1478,34132
3636,1431,34138
3637,1436,34143
3638,1465,34148
3639,1484,34152
3640,1497,34157
3641,1508,34162
3642,1490,34167
3643,1470,34171
3644,1475,34177
3645,1503,34182
3646,1513,34187
3647,1516,34191
3648,1535,34196
3649,1545,34201
3650,1535,34206
3651,1497,34210
3652,1445,34215
3653,1430,34221
3654,1446,34226
3655,1460,34231
3656,1459,34235
3657,1470,34240
3658,1501,34245
3659,1534,34250
3660,1553,34254
3661,1561,34259
3662,1563,34265
3663,1549,34270
3664,1510,34274
3665,1442,34279
3666,1386,34284
3667,1382,34289
3668,1434,34294
3669,1491,34298
3670,1529,34304
3671,1543,34309
3672,1554,34314
3673,1563,34318
3674,1563,34323
3675,1533,34328
3676,1496,34333
3677,1472,34337
3678,1460,34342
3679,1431,34348
3680,1421,34353
3681,1442,34358
3682,1474,34362
3683,1472,34367
3684,1464,34372
3685,1487,34377
3686,1532,34381
3687,1558,34386
3688,1550,34392
3689,1547,34397
3690,1553,34401
3691,1559,34406
3692,1525,34411
3693,1471,34416
3694,1459,34420
3695,1462,34425
3696,1479,34430
3697,1476,34436
3698,1482,34441
3699,1510,34445
3700,1541,34450
3701,1556,34455
3702,1559,34460
3703,1562,34464
3704,1546,34469
3705,1475,34475
3706,1422,34480
3707,1413,34484
3708,1435,34489
3709,1446,34494
3710,1443,34499
3711,1452,34504
3712,1490,34508
3713,1525,34513
3714,1544,34519
3715,1539,34524
3716,1534,34528
3717,1537,34533
3718,1531,34538
3719,1494,34543
3720,1465,34547
3721,1459,34552
3722,1480,34557
3723,1482,34563
3724,1473,34567
3725,1483,34572
3726,1512,34577
3727,1535,34582
3728,1541,34587
3729,1525,34591
3730,1514,34596
3731,1507,34601
3732,1458,34607
3733,1371,34611
3734,1344,34616
3735,1388,34621
3736,1426,34626
3737,1454,34630
3738,1494,34635
3739,1535,34640
3740,1569,34646
3741,1582,34651
3742,1584,34655
3743,1584,34660
3744,1558,34665
3745,1504,34670
3746,1446,34674
3747,1435,34679
3748,1438,34684
3749,1439,34690
3750,1435,34694
3751,1472,34699
3752,1511,34704
3753,1535,34709
3754,1547,34713
3755,1560,34718
3756,1554,34723
3757,1512,34728
3758,1475,34734
3759,1474,34738
3760,1451,34743
3761,1404,34748
3762,1368,34753
3763,1374,34757
3764,1419,34762
3765,1482,34767
3766,1533,34772
3767,1572,34777
3768,1591,34782
3769,1595,34787
3770,1592,34792
3771,1583,34797
3772,1516,34801
3773,1449,34806
3774,1432,34811
3775,1448,34817
3776,1457,34821
3777,1474,34826
3778,1485,34831
3779,1491,34836
3780,1509,34840
3781,1522,34845
3782,1506,34850
3783,1498,34855
3784,1514,34861
3785,1533,34865
3786,1522,34870
3787,1483,34875
3788,1443,34880
3789,1442,34884
3790,1441,34889
3791,1426,34894
3792,1419,34899
3793,1445,34904
3794,1482,34909
3795,1515,34914
3796,1541,34919
3797,1564,34923
3798,1569,34928
3799,1560,34933
3800,1550,34938
3801,1530,34944
3802,1476,34948
3803,1431,34953
3804,1413,34958
3805,1429,34963
3806,1456,34967
3807,1485,34972
3808,1509,34977
3809,1521,34982
3810,1516,34987
3811,1530,34992
3812,1540,34997
3813,1521,35002
3814,1487,35007
3815,1461,35011
3816,1443,35016
3817,1391,35021
3818,1378,35026
3819,1413,35031
3820,1467,35036
3821,1511,35041
3822,1541,35046
3823,1561,35050
3824,1577,35055
3825,1582,35060
3826,1571,35065
3827,1524,35069
3828,1451,35075
3829,1398,35080
3830,1418,35085
3831,1464,35090
3832,1483,35094
3833,1437,35099
3834,1400,35104
3835,1420,35109
3836,1479,35113
3837,1536,35119
3838,1564,35124
3839,1578,35129
3840,1586,35133
3841,1587,35138
3842,1576,35143
3843,1533,35148
3844,1453,35153
3845,1402,35158
3846,1371,35163
3847,1386,35168
3848,1436,35173
3849,1485,35177
3850,1529,35182
3851,1545,35187
3852,1554,35192
3853,1563,35196
3854,1567,35202
3855,1560,35207
3856,1521,35212
3857,1472,35217
3858,1452,35221
3859,1446,35226
3860,1445,35231
3861,1445,35236
3862,1441,35240
3863,1441,35246
3864,1465,35251
3865,1501,35256
3866,1540,35260
3867,1567,35265
3868,1573,35270
3869,1557,35275
3870,1530,35279
3871,1498,35284
3872,1458,35290
3873,1419,35295
3874,1395,35300
3875,1400,35304
3876,1443,35309
3877,1480,35314
3878,1511,35319
3879,1544,35323
3880,1566,35329
3881,1578,35334
3882,1565,35339
3883,1536,35343
3884,1514,35348
3885,1474,35353
3886,1451,35358
3887,1442,35363
3888,1450,35367
3889,1464,35373
3890,1492,35378
3891,1513,35383
3892,1529,35387
3893,1546,35392
3894,1561,35397
3895,1552,35402
3896,1518,35406
3897,1487,35411
3898,1483,35417
3899,1494,35422
3900,1461,35426
3901,1390,35431
3902,1382,35436
3903,1422,35441
3904,1474,35446
3905,1503,35450
3906,1529,35456
3907,1553,35461
3908,1565,35466
3909,1570,35470
3910,1564,35475
3911,1523,35480
3912,1466,35485
3913,1421,35489
3914,1426,35494
3915,1435,35500
3916,1437,35505
3917,1456,35510
3918,1491,35514
3919,1510,35519
3920,1524,35524
3921,1538,35529
3922,1551,35533
3923,1561,35538
3924,1556,35544
3925,1516,35549
3926,1457,35553
3927,1429,35558
3928,1440,35563
3929,1440,35568
3930,1426,35572
3931,1447,35577
3932,1496,35582
3933,1534,35588
3934,1558,35593
3935,1572,35597
3936,1580,35602
3937,1568,35607
3938,1547,35612
3939,1547,35616
3940,1534,35621
3941,1475,35627
3942,1446,35632
3943,1444,35636
3944,1458,35641
3945,1463,35646
3946,1473,35651
3947,1488,35656
3948,1519,35660
3949,1535,35665
3950,1526,35671
3951,1499,35676
3952,1479,35680
3953,1483,35685
3954,1470,35690
3955,1435,35695
3956,1400,35699
3957,1401,35704
3958,1431,35709
3959,1487,35715
3960,1529,35719
3961,1558,35724
3962,1566,35729
3963,1564,35734
3964,1567,35739
3965,1564,35743
3966,1534,35748
3967,1488,35753
3968,1434,35759
3969,1426,35763
3970,1447,35768
3971,1456,35773
3972,1472,35778
3973,1508,35782
3974,1535,35787
3975,1554,35792
3976,1538,35798
3977,1505,35803
3978,1470,35807
3979,1475,35812
3980,1477,35817
3981,1460,35822
3982,1414,35826
3983,1397,35831
3984,1427,35836
3985,1485,35842
3986,1522,35846
3987,1544,35851
3988,1564,35856
3989,1582,35861
3990,1585,35866
3991,1572,35870
3992,1545,35875
3993,1483,35880
3994,1415,35886
3995,1413,35890
3996,1456,35895
3997,1481,35900
3998,1460,35905
3999,1455,35909
4000,1489,35914
4001,1535,35919
4002,1557,35924
4003,1554,35929
4004,1525,35934
4005,1505,35939
4006,1509,35944
4007,1517,35949
4008,1486,35953
4009,1454,35958
4010,1459,35963
4011,1482,35969
4012,1467,35973
4013,1428,35978
4014,1424,35983
4015,1455,35988
4016,1498,35992
4017,1539,35997
4018,1551,36002
4019,1549,36007
4020,1551,36013
4021,1556,36017
4022,1551,36022
4023,1505,36027
4024,1450,36032
4025,1437,36036
4026,1450,36041
4027,1456,36046
4028,1455,36051
4029,1475,36056
4030,1504,36061
4031,1528,36066
4032,1541,36071
4033,1539,36075
4034,1519,36080
4035,1499,36085
4036,1485,36090
4037,1451,36096
4038,1404,36100
4039,1386,36105
4040,1432,36110
4041,1475,36115
4042,1500,36119
4043,1526,36124
4044,1552,36129
4045,1572,36134
4046,1576,36139
4047,1576,36144
4048,1570,36149
4049,1528,36154
4050,1470,36159
4051,1417,36163
4052,1351,36168
4053,1271,36173
4054,1250,36178
4055,1312,36183
4056,1414,36188
4057,1492,36193
4058,1548,36198
4059,1591,36202
4060,1609,36207
4061,1611,36212
4062,1609,36217
4063,1601,36222
4064,1586,36227
4065,1546,36232
4066,1512,36237
4067,1488,36242
4068,1482,36246
4069,1477,36251
4070,1441,36256
4071,1422,36261
4072,1441,36265
4073,1471,36271
4074,1489,36276
4075,1490,36281
4076,1489,36285
4077,1506,36290
4078,1524,36295
4079,1535,36300
4080,1534,36305
4081,1493,36310
4082,1441,36315
4083,1428,36320
4084,1451,36325
4085,1445,36329
4086,1437,36334
4087,1468,36339
4088,1512,36344
4089,1543,36348
4090,1556,36354
4091,1567,36359
4092,1564,36364
4093,1532,36369
4094,1501,36373
4095,1473,36378
4096,1431,36383
4097,1413,36388
4098,1416,36392
4099,1400,36398
4100,1402,36403
4101,1433,36408
4102,1489,36412
4103,1533,36417
4104,1568,36422
4105,1586,36427
4106,1590,36431
4107,1581,36436
4108,1572,36442
4109,1553,36447
4110,1513,36452
4111,1451,36456
4112,1408,36461
4113,1391,36466
4114,1365,36471
4115,1374,36475
4116,1439,36481
4117,1488,36486
4118,1525,36491
4119,1556,36495
4120,1575,36500
4121,1582,36505
4122,1583,36510
4123,1578,36515
4124,1552,36519
4125,1488,36525
4126,1432,36530
4127,1440,36535
4128,1470,36539
4129,1454,36544
4130,1390,36549
4131,1349,36554
4132,1384,36558
4133,1445,36563
4134,1507,36569
4135,1554,36574
4136,1583,36578
4137,1598,36583
4138,1592,36588
4139,1584,36593
4140,1570,36598
4141,1550,36602
4142,1527,36608
4143,1508,36613
4144,1473,36618
4145,1443,36622
4146,1431,36627
4147,1450,36632
4148,1454,36637
4149,1444,36641
4150,1454,36646
4151,1498,36652
4152,1532,36657
4153,1554,36662
4154,1557,36666
4155,1552,36671
4156,1547,36676
4157,1525,36681
4158,1469,36685
4159,1437,36690
4160,1429,36696
4161,1452,36701
4162,1447,36705
4163,1398,36710
4164,1390,36715
4165,1441,36720
4166,1500,36724
4167,1542,36729
4168,1564,36734
4169,1578,36740
4170,1586,36745
4171,1588,36749
4172,1568,36754
4173,1531,36759
4174,1482,36764
4175,1443,36768
4176,1434,36773
4177,1437,36779
4178,1407,36784
4179,1405,36788
4180,1447,36793
4181,1515,36798
4182,1554,36803
4183,1579,36808
4184,1588,36812
4185,1590,36817
4186,1590,36823
4187,1577,36828
4188,1522,36832
4189,1447,36837
4190,1424,36842
4191,1428,36847
4192,1441,36851
4193,1450,36856
4194,1462,36861
4195,1475,36867
4196,1500,36872
4197,1535,36876
4198,1558,36881
4199,1563,36886
4200,1525,36891
4201,1490,36895
4202,1478,36900
4203,1474,36905
4204,1461,36911
4205,1467,36915
4206,1493,36920
4207,1524,36925
4208,1545,36930
4209,1558,36934
4210,1556,36939
4211,1522,36944
4212,1497,36950
4213,1439,36955
4214,1406,36959
4215,1410,36964
4216,1444,36969
4217,1459,36974
4218,1475,36978
4219,1498,36983
4220,1523,36988
4221,1543,36994
4222,1551,36998
4223,1563,37003
4224,1553,37008
4225,1487,37013
4226,1421,37018
4227,1410,37022
4228,1441,37027
4229,1431,37032
4230,1426,37038
4231,1440,37042
4232,1470,37047
4233,1506,37052
4234,1538,37057
4235,1559,37061
4236,1581,37066
4237,1584,37071
4238,1553,37076
4239,1512,37082
4240,1492,37086
4241,1476,37091
4242,1444,37096
4243,1441,37101
4244,1437,37105
4245,1443,37110
4246,1469,37115
4247,1512,37121
4248,1544,37125
4249,1559,37130
4250,1540,37135
4251,1517,37140
4252,1504,37144
4253,1505,37149
4254,1484,37154
4255,1455,37159
4256,1456,37165
4257,1473,37169
4258,1481,37174
4259,1497,37179
4260,1520,37184
4261,1542,37188
4262,1552,37193
4263,1546,37198
4264,1523,37203
4265,1483,37208
4266,1454,37213
4267,1448,37218
4268,1441,37223
4269,1359,37228
4270,1290,37232
4271,1317,37237
4272,1398,37242
4273,1488,37248
4274,1544,37252
4275,1574,37257
4276,1592,37262
4277,1597,37267
4278,1580,37271
4279,1556,37276
4280,1539,37281
4281,1497,37286
4282,1426,37291
4283,1379,37296
4284,1408,37301
4285,1461,37306
4286,1490,37311
4287,1512,37315
4288,1544,37320
4289,1568,37325
4290,1583,37330
4291,1570,37335
4292,1543,37340
4293,1532,37345
4294,1506,37350
4295,1468,37354
4296,1457,37359
4297,1454,37364
4298,1438,37369
4299,1432,37374
4300,1417,37379
4301,1375,37384
4302,1387,37389
4303,1455,37394
4304,1525,37398
4305,1568,37403
4306,1588,37408
4307,1593,37413
4308,1587,37417
4309,1560,37423
4310,1516,37428
4311,1494,37433
4312,1493,37437
4313,1487,37442
4314,1463,37447
4315,1453,37452
4316,1474,37457
4317,1494,37462
4318,1474,37467
4319,1477,37472
4320,1506,37477
4321,1517,37481
4322,1470,37486
4323,1440,37491
4324,1465,37496
4325,1510,37500
4326,1514,37506
4327,1470,37511
4328,1457,37516
4329,1479,37521
4330,1510,37525
4331,1511,37530
4332,1509,37535
4333,1509,37540
4334,1504,37544
4335,1486,37550
4336,1477,37555
4337,1487,37560
4338,1467,37564
4339,1443,37569
4340,1456,37574
4341,1497,37579
4342,1524,37584
4343,1531,37588
4344,1538,37594
4345,1548,37599
4346,1537,37604
4347,1504,37608
4348,1499,37613
4349,1492,37618
4350,1476,37623
4351,1456,37627
4352,1455,37633
4353,1467,37638
4354,1485,37643
4355,1498,37647
4356,1524,37652
4357,1529,37657
4358,1499,37662
4359,1493,37667
4360,1494,37671
4361,1474,37677
4362,1454,37682
4363,1465,37687
4364,1478,37691
4365,1478,37696
4366,1480,37701
4367,1507,37706
4368,1523,37710
4369,1503,37715
4370,1508,37721
4371,1535,37726
4372,1538,37731
4373,1464,37735
4374,1428,37740
4375,1449,37745
4376,1492,37750
4377,1532,37754
4378,1551,37760
4379,1554,37765
4380,1552,37770
4381,1548,37774
4382,1544,37779
4383,1494,37784
4384,1387,37789
4385,1329,37794
4386,1351,37798
4387,1433,37804
4388,1488,37809
4389,1527,37814
4390,1540,37818
4391,1538,37823
4392,1542,37828
4393,1558,37833
4394,1547,37837
4395,1495,37842
4396,1443,37848
4397,1442,37853
4398,1481,37857
4399,1472,37862
4400,1438,37867
4401,1436,37872
4402,1465,37877
4403,1511,37881
4404,1531,37886
4405,1519,37892
4406,1503,37897
4407,1520,37901
4408,1548,37906
4409,1529,37911
4410,1454,37916
4411,1435,37920
4412,1467,37925
4413,1511,37931
4414,1517,37936
4415,1508,37941
4416,1497,37945
4417,1508,37950
4418,1533,37955
4419,1553,37960
4420,1558,37964
4421,1550,37969
4422,1525,37975
4423,1480,37980
4424,1450,37984
4425,1438,37989
4426,1439,37994
4427,1451,37999
4428,1464,38003
4429,1494,38008
4430,1529,38013
4431,1543,38019
4432,1559,38024
4433,1565,38028
4434,1538,38033
4435,1505,38038
4436,1498,38043
4437,1489,38047
4438,1454,38052
4439,1424,38057
4440,1421,38063
4441,1426,38067
4442,1437,38072
4443,1440,38077
4444,1466,38082
4445,1512,38087
4446,1562,38091
4447,1575,38096
4448,1585,38102
4449,1594,38107
4450,1588,38111
4451,1550,38116
4452,1473,38121
4453,1407,38126
4454,1409,38130
4455,1452,38135
4456,1482,38140
4457,1492,38146
4458,1506,38151
4459,1525,38155
4460,1546,38160
4461,1560,38165
4462,1562,38170
4463,1555,38174
4464,1548,38179
4465,1518,38184
4466,1465,38190
4467,1378,38194
4468,1310,38199
4469,1282,38204
4470,1329,38209
4471,1400,38214
4472,1471,38218
4473,1523,38223
4474,1573,38228
4475,1602,38234
4476,1616,38238
4477,1615,38243
4478,1607,38248
4479,1583,38253
4480,1534,38257
4481,1472,38262
4482,1411,38267
4483,1395,38273
4484,1424,38278
4485,1480,38282
4486,1535,38287
4487,1564,38292
4488,1577,38297
4489,1579,38301
4490,1571,38306
4491,1544,38311
4492,1469,38317
4493,1413,38321
4494,1394,38326
4495,1375,38331
4496,1364,38336
4497,1390,38341
4498,1425,38345
4499,1477,38350
4500,1518,38355
4501,1552,38361
4502,1579,38365
4503,1591,38370
4504,1594,38375
4505,1587,38380
4506,1547,38384
4507,1464,38389
4508,1417,38394
4509,1424,38400
4510,1447,38405
4511,1434,38409
4512,1444,38414
4513,1462,38419
4514,1443,38424
4515,1436,38428
4516,1474,38433
4517,1534,38438
4518,1583,38444
4519,1602,38448
4520,1606,38453
4521,1578,38458
4522,1521,38463
4523,1491,38467
4524,1487,38472
4525,1458,38477
4526,1435,38482
4527,1463,38488
4528,1507,38492
4529,1541,38497
4530,1536,38502
4531,1510,38507
4532,1496,38511
4533,1503,38516
4534,1521,38521
4535,1541,38526
4536,1554,38531
4537,1543,38536
4538,1495,38541
4539,1439,38546
4540,1427,38551
4541,1458,38555
4542,1485,38560
4543,1445,38565
4544,1419,38571
4545,1441,38575
4546,1471,38580
4547,1475,38585
4548,1466,38590
4549,1483,38594
4550,1531,38599
4551,1559,38604
4552,1515,38609
4553,1465,38614
4554,1469,38619
4555,1506,38624
4556,1528,38629
4557,1413,38634
4558,1264,38638
4559,1256,38643
4560,1341,38648
4561,1447,38653
4562,1539,38658
4563,1587,38663
4564,1597,38668
4565,1590,38673
4566,1586,38677
4567,1592,38682
4568,1549,38687
4569,1420,38692
4570,1389,38697
4571,1435,38702
4572,1494,38707
4573,1521,38712
4574,1535,38717
4575,1555,38721
4576,1572,38726
4577,1567,38731
4578,1514,38736
4579,1465,38740
4580,1445,38746
4581,1426,38751
4582,1389,38756
4583,1368,38760
4584,1374,38765
4585,1418,38770
4586,1480,38775
4587,1522,38780
4588,1507,38785
4589,1502,38790
4590,1520,38795
4591,1525,38800
4592,1499,38804
4593,1501,38809
4594,1507,38814
4595,1494,38819
4596,1464,38823
4597,1459,38829
4598,1477,38834
4599,1517,38839
4600,1493,38844
4601,1453,38848
4602,1463,38853
4603,1517,38858
4604,1541,38863
4605,1510,38867
4606,1467,38873
4607,1456,38878
4608,1457,38883
4609,1457,38887
4610,1459,38892
4611,1478,38897
4612,1521,38902
4613,1555,38906
4614,1523,38912
4615,1500,38917
4616,1518,38922
4617,1544,38927
4618,1476,38931
4619,1415,38936
4620,1427,38941
4621,1471,38946
4622,1498,38950
4623,1478,38956
4624,1409,38961
4625,1417,38966
4626,1490,38970
4627,1550,38975
4628,1584,38980
4629,1595,38985
4630,1574,38990
4631,1548,38994
4632,1517,39000
4633,1487,39005
4634,1494,39010
4635,1494,39014
4636,1412,39019
4637,1320,39024
4638,1325,39029
4639,1402,39033
4640,1452,39038
4641,1444,39044
4642,1461,39049
4643,1517,39054
4644,1573,39058
4645,1611,39063
4646,1621,39068
4647,1614,39073
4648,1597,39077
4649,1519,39083
4650,1449,39088
4651,1438,39093
4652,1418,39097
4653,1391,39102
4654,1425,39107
4655,1485,39112
4656,1507,39116
4657,1467,39121
4658,1469,39127
4659,1515,39132
4660,1554,39137
4661,1559,39141
4662,1551,39146
4663,1538,39151
4664,1510,39156
4665,1463,39160
4666,1420,39165
4667,1417,39171
4668,1451,39176
4669,1410,39180
4670,1335,39185
4671,1365,39190
4672,1462,39195
4673,1557,39200
4674,1598,39204
4675,1620,39209
4676,1625,39215
4677,1619,39220
4678,1597,39224
4679,1548,39229
4680,1493,39234
4681,1389,39239
4682,1307,39243
4683,1344,39248
4684,1438,39254
4685,1415,39259
4686,1397,39263
4687,1443,39268
4688,1511,39273
4689,1578,39278
4690,1615,39283
4691,1629,39287
4692,1617,39292
4693,1583,39298
4694,1557,39303
4695,1501,39307
4696,1425,39312
4697,1382,39317
4698,1358,39322
4699,1379,39326
4700,1446,39331
4701,1437,39336
4702,1398,39342
4703,1428,39347
4704,1512,39351
4705,1579,39356
4706,1604,39361
4707,1608,39366
4708,1603,39370
4709,1592,39375
4710,1578,39380
4711,1548,39386
4712,1455,39390
4713,1387,39395
4714,1309,39400
4715,1318,39405
4716,1393,39410
4717,1475,39414
4718,1515,39419
4719,1493,39425
4720,1497,39430
4721,1547,39434
4722,1585,39439
4723,1605,39444
4724,1603,39449
4725,1572,39453
4726,1449,39458
4727,1374,39463
4728,1389,39469
4729,1448,39473
4730,1394,39478
4731,1346,39483
4732,1357,39488
4733,1418,39493
4734,1469,39497
4735,1499,39502
4736,1547,39507
4737,1604,39513
4738,1629,39517
4739,1637,39522
4740,1630,39527
4741,1613,39532
4742,1597,39536
4743,1573,39541
4744,1490,39546
4745,1394,39552
4746,1359,39557
4747,1387,39561
4748,1351,39566
4749,1299,39571
4750,1347,39576
4751,1465,39580
4752,1528,39585
4753,1561,39590
4754,1592,39596
4755,1618,39600
4756,1627,39605
4757,1620,39610
4758,1598,39615
4759,1567,39620
4760,1507,39624
4761,1425,39629
4762,1377,39634
4763,1345,39640
4764,1312,39644
4765,1362,39649
4766,1421,39654
4767,1466,39659
4768,1513,39663
4769,1568,39668
4770,1601,39673
4771,1618,39678
4772,1623,39684
4773,1610,39688
4774,1590,39693
4775,1561,39698
4776,1525,39703
4777,1477,39707
4778,1412,39712
4779,1337,39717
4780,1284,39723
4781,1329,39727
4782,1355,39732
4783,1317,39737
4784,1352,39742
4785,1451,39746
4786,1562,39751
4787,1615,39756
4788,1644,39761
4789,1647,39767
4790,1638,39771
4791,1624,39776
4792,1605,39781
4793,1588,39786
4794,1572,39790
4795,1488,39795
4796,1397,39800
4797,1381,39805
4798,1432,39810
4799,1442,39815
4800,1372,39820
4801,1385,39825
4802,1435,39830
4803,1472,39834
4804,1530,39839
4805,1579,39844
4806,1615,39849
4807,1626,39854
4808,1621,39859
4809,1602,39864
4810,1581,39869
4811,1557,39873
4812,1537,39878
4813,1467,39883
4814,1375,39888
4815,1346,39892
4816,1374,39898
4817,1407,39903
4818,1387,39908
4819,1402,39913
4820,1463,39917
4821,1529,39922
4822,1582,39927
4823,1611,39932
4824,1617,39937
4825,1614,39942
4826,1603,39947
4827,1579,39952
4828,1540,39956
4829,1503,39961
4830,1451,39966
4831,1416,39971
4832,1423,39976
4833,1443,39981
4834,1371,39986
4835,1371,39991
4836,1437,39996
4837,1507,40000
4838,1567,40005
4839,1608,40010
4840,1622,40015
4841,1626,40019
4842,1619,40025
4843,1605,40030
4844,1586,40035
4845,1540,40040
4846,1497,40044
4847,1440,40049
4848,1368,40054
4849,1306,40059
4850,1329,40064
4851,1425,40069
4852,1507,40074
4853,1569,40079
4854,1604,40083
4855,1616,40088
4856,1616,40093
4857,1608,40098
4858,1595,40102
4859,1583,40108
4860,1559,40113
4861,1463,40118
4862,1368,40123
4863,1388,40127
4864,1463,40132
4865,1506,40137
4866,1396,40142
4867,1293,40146
4868,1318,40152
4869,1448,40157
4870,1542,40162
4871,1602,40166
4872,1625,40171
4873,1630,40176
4874,1623,40181
4875,1613,40186
4876,1598,40190
4877,1581,40196
4878,1554,40201
4879,1509,40206
4880,1432,40210
4881,1397,40215
4882,1396,40220
4883,1408,40225
4884,1371,40229
4885,1397,40235
4886,1475,40240
4887,1544,40245
4888,1579,40249
4889,1598,40254
4890,1604,40259
4891,1603,40264
4892,1590,40269
4893,1574,40273
4894,1544,40279
4895,1499,40284
4896,1423,40289
4897,1390,40293
4898,1408,40298
4899,1451,40303
4900,1462,40308
4901,1491,40312
4902,1527,40317
4903,1552,40323
4904,1573,40328
4905,1581,40333
4906,1579,40337
4907,1575,40342
4908,1571,40347
4909,1563,40352
4910,1506,40356
4911,1409,40361
4912,1360,40367
4913,1399,40372
4914,1414,40376
4915,1309,40381
4916,1300,40386
4917,1402,40391
4918,1480,40395
4919,1551,40400
4920,1601,40406
4921,1618,40411
4922,1617,40416
4923,1603,40420
4924,1592,40425
4925,1574,40430
4926,1532,40435
4927,1512,40439
4928,1522,40444
4929,1508,40450
4930,1445,40455
4931,1407,40459
4932,1438,40464
4933,1493,40469
4934,1524,40474
4935,1491,40479
4936,1417,40483
4937,1425,40488
4938,1494,40494
4939,1547,40499
4940,1582,40503
4941,1591,40508
4942,1586,40513
4943,1580,40518
4944,1574,40522
4945,1562,40527
4946,1477,40532
4947,1390,40538
4948,1412,40542
4949,1473,40547
4950,1522,40552
4951,1550,40557
4952,1543,40562
4953,1538,40566
4954,1537,40571
4955,1548,40577
4956,1554,40582
4957,1551,40586
4958,1520,40591
4959,1498,40596
4960,1498,40601
4961,1478,40605
4962,1438,40610
4963,1420,40615
4964,1430,40621
4965,1472,40626
4966,1496,40630
4967,1466,40635
4968,1490,40640
4969,1527,40645
4970,1557,40649
4971,1566,40654
4972,1567,40659
4973,1567,40665
4974,1544,40669
4975,1469,40674
4976,1442,40679
4977,1476,40684
4978,1513,40688
4979,1492,40693
4980,1462,40698
4981,1471,40704
4982,1513,40709
4983,1535,40713
4984,1532,40718
4985,1505,40723
4986,1470,40728
4987,1448,40732
4988,1466,40737
4989,1514,40742
4990,1542,40748
4991,1546,40752
4992,1518,40757
4993,1480,40762
4994,1461,40767
4995,1469,40772
4996,1456,40776
4997,1476,40781
4998,1492,40786
4999,1506,40792
5000,1528,40796
5001,1550,40801
5002,1560,40806
5003,1562,40811
5004,1537,40815
5005,1496,40820
5006,1472,40825
5007,1462,40830
5008,1482,40836
5009,1480,40840
5010,1469,40845
5011,1444,40850
5012,1447,40855
5013,1461,40859
5014,1500,40864
5015,1522,40869
5016,1541,40875
5017,1562,40879
5018,1567,40884
5019,1560,40889
5020,1548,40894
5021,1538,40898
5022,1505,40903
5023,1465,40908
5024,1462,40913
5025,1448,40919
5026,1424,40923
5027,1423,40928
5028,1430,40933
5029,1444,40938
5030,1482,40942
5031,1522,40947
5032,1545,40952
5033,1562,40957
5034,1575,40962
5035,1578,40967
5036,1562,40972
5037,1498,40977
5038,1463,40982
5039,1475,40986
5040,1476,40991
5041,1430,40996
5042,1424,41001
5043,1453,41006
5044,1495,41011
5045,1533,41016
5046,1558,41021
5047,1581,41025
5048,1587,41030
5049,1582,41035
5050,1565,41040
5051,1517,41044
5052,1449,41050
5053,1420,41055
5054,1441,41060
5055,1465,41065
5056,1460,41069
5057,1461,41074
5058,1469,41079
5059,1493,41084
5060,1524,41089
5061,1550,41094
5062,1564,41099
5063,1562,41104
5064,1551,41108
5065,1536,41113
5066,1511,41118
5067,1500,41123
5068,1488,41128
5069,1457,41133
5070,1426,41138
5071,1429,41143
5072,1420,41148
5073,1434,41152
5074,1478,41157
5075,1509,41162
5076,1535,41167
5077,1559,41171
5078,1564,41177
5079,1553,41182
5080,1546,41187
5081,1532,41192
5082,1509,41196
5083,1486,41201
5084,1452,41206
5085,1425,41211
5086,1430,41216
5087,1419,41221
5088,1420,41226
5089,1446,41231
5090,1471,41235
5091,1520,41240
5092,1556,41245
5093,1572,41250
5094,1573,41254
5095,1560,41260
5096,1515,41265
5097,1492,41270
5098,1475,41275
5099,1473,41279
5100,1471,41284
5101,1466,41289
5102,1458,41294
5103,1460,41298
5104,1473,41304
5105,1485,41309
5106,1485,41314
5107,1482,41318
5108,1488,41323
5109,1513,41328
5110,1534,41333
5111,1544,41337
5112,1528,41342
5113,1487,41348
5114,1473,41353
5115,1477,41358
5116,1473,41362
5117,1413,41367
5118,1367,41372
5119,1395,41377
5120,1459,41381
5121,1516,41387
5122,1540,41392
5123,1555,41397
5124,1561,41401
5125,1555,41406
5126,1549,41411
5127,1537,41416
5128,1501,41421
5129,1455,41425
5130,1447,41431
5131,1448,41436
5132,1418,41441
5133,1425,41445
5134,1441,41450
5135,1464,41455
5136,1490,41460
5137,1533,41464
5138,1559,41469
5139,1572,41475
5140,1575,41480
5141,1570,41485
5142,1551,41489
5143,1510,41494
5144,1467,41499
5145,1458,41504
5146,1425,41508
5147,1381,41513
5148,1407,41519
5149,1456,41524
5150,1491,41528
5151,1510,41533
5152,1533,41538
5153,1554,41543
5154,1567,41547
5155,1572,41552
5156,1564,41558
5157,1544,41563
5158,1522,41568
5159,1483,41572
5160,1421,41577
5161,1392,41582
5162,1398,41587
5163,1387,41591
5164,1399,41596
5165,1465,41602
5166,1528,41607
5167,1571,41611
5168,1584,41616
5169,1588,41621
5170,1580,41626
5171,1572,41631
5172,1558,41635
5173,1526,41640
5174,1443,41646
5175,1401,41651
5176,1398,41655
5177,1436,41660
5178,1458,41665
5179,1475,41670
5180,1448,41674
5181,1430,41679
5182,1463,41684
5183,1519,41690
5184,1551,41694
5185,1567,41699
5186,1575,41704
5187,1572,41709
5188,1561,41714
5189,1521,41718
5190,1464,41723
5191,1433,41729
5192,1431,41734
5193,1446,41738
5194,1458,41743
5195,1454,41748
5196,1451,41753
5197,1479,41757
5198,1517,41762
5199,1548,41767
5200,1557,41773
5201,1556,41778
5202,1543,41782
5203,1534,41787
5204,1527,41792
5205,1519,41797
5206,1497,41801
5207,1472,41806
5208,1420,41811
5209,1380,41817
5210,1387,41821
5211,1424,41826
5212,1467,41831
5213,1522,41836
5214,1552,41840
5215,1571,41845
5216,1582,41850
5217,1580,41856
5218,1568,41861
5219,1552,41865
5220,1536,41870
5221,1522,41875
5222,1490,41880
5223,1428,41884
5224,1371,41889
5225,1378,41894
5226,1425,41900
5227,1470,41904
5228,1498,41909
5229,1520,41914
5230,1516,41919
5231,1500,41924
5232,1508,41928
5233,1523,41933
5234,1538,41938
5235,1505,41944
5236,1408,41948
5237,1396,41953
5238,1441,41958
5239,1497,41963
5240,1518,41967
5241,1506,41972
5242,1503,41977
5243,1514,41982
5244,1535,41987
5245,1545,41992
5246,1541,41997
5247,1540,42002
5248,1530,42007
5249,1523,42011
5250,1496,42016
5251,1470,42021
5252,1438,42027
5253,1418,42031
5254,1400,42036
5255,1440,42041
5256,1496,42046
5257,1539,42050
5258,1557,42055
5259,1569,42060
5260,1573,42065
5261,1570,42071
5262,1548,42075
5263,1501,42080
5264,1465,42085
5265,1442,42090
5266,1425,42094
5267,1448,42099
5268,1474,42104
5269,1488,42109
5270,1485,42114
5271,1454,42119
5272,1446,42124
5273,1488,42129
5274,1528,42133
5275,1553,42138
5276,1561,42143
5277,1564,42148
5278,1561,42153
5279,1529,42158
5280,1479,42163
5281,1447,42168
5282,1423,42173
5283,1401,42177
5284,1379,42182
5285,1398,42187
5286,1443,42192
5287,1496,42196
5288,1536,42202
5289,1558,42207
5290,1572,42212
5291,1571,42217
5292,1568,42221
5293,1556,42226
5294,1506,42231
5295,1477,42236
5296,1455,42241
5297,1451,42246
5298,1454,42251
5299,1454,42256
5300,1476,42260
5301,1501,42265
5302,1513,42270
5303,1527,42275
5304,1538,42279
5305,1519,42285
5306,1477,42290
5307,1474,42295
5308,1501,42300
5309,1506,42304
5310,1441,42309
5311,1386,42314
5312,1382,42319
5313,1440,42323
5314,1477,42329
5315,1495,42334
5316,1512,42339
5317,1542,42343
5318,1560,42348
5319,1571,42353
5320,1570,42358
5321,1554,42363
5322,1523,42368
5323,1500,42373
5324,1450,42378
5325,1395,42383
5326,1381,42387
5327,1400,42392
5328,1439,42397
5329,1471,42402
5330,1506,42406
5331,1535,42412
5332,1538,42417
5333,1536,42422
5334,1541,42426
5335,1545,42431
5336,1525,42436
5337,1469,42441
5338,1426,42446
5339,1425,42450
5340,1412,42456
5341,1364,42461
5342,1370,42466
5343,1429,42470
5344,1499,42475
5345,1554,42480
5346,1580,42485
5347,1592,42489
5348,1590,42494
5349,1584,42500
5350,1567,42505
5351,1532,42510
5352,1496,42514
5353,1482,42519
5354,1434,42524
5355,1394,42529
5356,1420,42533
5357,1464,42539
5358,1496,42544
5359,1527,42549
5360,1535,42553
5361,1545,42558
5362,1554,42563
5363,1557,42568
5364,1551,42572
5365,1502,42577
5366,1457,42583
5367,1455,42588
5368,1442,42593
5369,1414,42597
5370,1408,42602
5371,1407,42607
5372,1431,42612
5373,1489,42616
5374,1537,42621
5375,1567,42627
5376,1578,42632
5377,1580,42636
5378,1576,42641
5379,1566,42646
5380,1539,42651
5381,1502,42656
5382,1430,42660
5383,1376,42665
5384,1389,42671
5385,1442,42676
5386,1486,42680
5387,1513,42685
5388,1517,42690
5389,1507,42695
5390,1519,42699
5391,1539,42704
5392,1549,42710
5393,1553,42715
5394,1530,42719
5395,1488,42724
5396,1452,42729
5397,1445,42734
5398,1440,42739
5399,1395,42743
5400,1396,42748
5401,1451,42754
5402,1491,42759
5403,1525,42763
5404,1549,42768
5405,1567,42773
5406,1569,42778
5407,1557,42782
5408,1534,42787
5409,1516,42792
5410,1507,42798
5411,1446,42803
5412,1396,42807
5413,1389,42812
5414,1427,42817
5415,1482,42822
5416,1508,42826
5417,1523,42831
5418,1536,42836
5419,1550,42842
5420,1555,42846
5421,1555,42851
5422,1547,42856
5423,1507,42861
5424,1458,42865
5425,1421,42870
5426,1409,42875
5427,1418,42881
5428,1417,42886
5429,1435,42890
5430,1471,42895
5431,1526,42900
5432,1550,42905
5433,1558,42909
5434,1559,42914
5435,1556,42919
5436,1537,42925
5437,1498,42929
5438,1459,42934
5439,1429,42939
5440,1396,42944
5441,1410,42949
5442,1460,42953
5443,1496,42958
5444,1521,42963
5445,1549,42969
5446,1561,42973
5447,1561,42978
5448,1534,42983
5449,1500,42988
5450,1504,42992
5451,1502,42997
5452,1447,43002
5453,1349,43008
5454,1304,43012
5455,1353,43017
5456,1437,43022
5457,1507,43027
5458,1556,43032
5459,1587,43036
5460,1598,43041
5461,1595,43046
5462,1585,43052
5463,1574,43056
5464,1561,43061
5465,1499,43066
5466,1419,43071
5467,1391,43075
5468,1435,43080
5469,1484,43085
5470,1497,43090
5471,1490,43096
5472,1493,43100
5473,1511,43105
5474,1531,43110
5475,1543,43115
5476,1537,43119
5477,1516,43124
5478,1507,43129
5479,1505,43134
5480,1495,43139
5481,1449,43144
5482,1385,43149
5483,1380,43154
5484,1436,43158
5485,1422,43163
5486,1378,43168
5487,1410,43173
5488,1478,43179
5489,1537,43183
5490,1570,43188
5491,1588,43193
5492,1587,43198
5493,1570,43202
5494,1559,43207
5495,1546,43212
5496,1484,43217
5497,1421,43222
5498,1405,43227
5499,1379,43232
5500,1346,43237
5501,1395,43242
5502,1480,43246
5503,1532,43251
5504,1561,43256
5505,1581,43261
5506,1587,43266
5507,1587,43271
5508,1582,43276
5509,1567,43281
5510,1533,43285
5511,1496,43290
5512,1445,43295
5513,1392,43300
5514,1375,43304
5515,1402,43310
5516,1445,43315
5517,1475,43320
5518,1511,43325
5519,1549,43329
5520,1570,43334
5521,1574,43339
5522,1561,43344
5523,1540,43348
5524,1518,43354
5525,1497,43359
5526,1430,43364
5527,1373,43368
5528,1353,43373
5529,1341,43378
5530,1337,43383
5531,1387,43388
5532,1486,43393
5533,1546,43398
5534,1577,43403
5535,1595,43408
5536,1596,43412
5537,1588,43417
5538,1578,43422
5539,1558,43427
5540,1545,43431
5541,1469,43437
5542,1335,43442
5543,1315,43447
5544,1402,43451
5545,1475,43456
5546,1526,43461
5547,1564,43466
5548,1585,43471
5549,1593,43475
5550,1589,43481
5551,1574,43486
5552,1550,43491
5553,1525,43495
5554,1487,43500
5555,1370,43505
5556,1273,43510
5557,1300,43514
5558,1417,43520
5559,1485,43525
5560,1538,43530
5561,1576,43535
5562,1595,43539
5563,1597,43544
5564,1595,43549
5565,1584,43554
5566,1571,43558
5567,1519,43564
5568,1486,43569
5569,1483,43574
5570,1476,43578
5571,1412,43583
5572,1286,43588
5573,1280,43593
5574,1371,43597
5575,1467,43602
5576,1538,43608
5577,1567,43613
5578,1589,43618
5579,1602,43622
5580,1600,43627
5581,1585,43632
5582,1565,43637
5583,1555,43641
5584,1524,43646
5585,1449,43652
5586,1383,43657
5587,1341,43661
5588,1368,43666
5589,1425,43671
5590,1502,43676
5591,1548,43681
5592,1572,43685
5593,1586,43691
5594,1589,43696
5595,1586,43701
5596,1573,43705
5597,1540,43710
5598,1490,43715
5599,1463,43720
5600,1447,43724
5601,1402,43729
5602,1322,43735
5603,1284,43740
5604,1354,43744
5605,1449,43749
5606,1518,43754
5607,1564,43759
5608,1588,43764
5609,1599,43768
5610,1595,43773
5611,1588,43779
5612,1565,43784
5613,1468,43788
5614,1421,43793
5615,1440,43798
5616,1496,43803
5617,1484,43807
5618,1434,43812
5619,1458,43817
5620,1485,43823
5621,1512,43828
5622,1537,43832
5623,1560,43837
5624,1567,43842
5625,1562,43847
5626,1560,43851
5627,1541,43856
5628,1479,43862
5629,1432,43867
5630,1419,43871
5631,1438,43876
5632,1384,43881
5633,1356,43886
5634,1390,43891
5635,1400,43895
5636,1375,43900
5637,1418,43906
5638,1499,43911
5639,1566,43915
5640,1599,43920
5641,1617,43925
5642,1621,43930
5643,1612,43934
5644,1593,43939
5645,1533,43944
5646,1474,43950
5647,1475,43954
5648,1498,43959
5649,1428,43964
5650,1332,43969
5651,1353,43974
5652,1443,43978
5653,1528,43983
5654,1572,43988
5655,1593,43994
5656,1594,43998
5657,1591,44003
5658,1585,44008
5659,1572,44013
5660,1520,44017
5661,1470,44022
5662,1446,44027
5663,1429,44033
5664,1432,44038
5665,1430,44042
5666,1407,44047
5667,1393,44052
5668,1430,44057
5669,1497,44061
5670,1546,44066
5671,1578,44071
5672,1592,44077
5673,1593,44081
5674,1588,44086
5675,1577,44091
5676,1545,44096
5677,1486,44100
5678,1420,44105
5679,1387,44110
5680,1372,44115
5681,1378,44121
5682,1399,44125
5683,1464,44130
5684,1531,44135
5685,1571,44140
5686,1589,44144
5687,1595,44149
5688,1590,44154
5689,1582,44160
5690,1570,44164
5691,1541,44169
5692,1451,44174
5693,1402,44179
5694,1398,44184
5695,1377,44188
5696,1382,44193
5697,1452,44198
5698,1515,44204
5699,1557,44208
5700,1570,44213
5701,1572,44218
5702,1570,44223
5703,1563,44227
5704,1540,44232
5705,1518,44237
5706,1475,44242
5707,1449,44248
5708,1396,44252
5709,1367,44257
5710,1336,44262
5711,1377,44267
5712,1451,44271
5713,1523,44276
5714,1560,44281
5715,1576,44286
5716,1585,44291
5717,1588,44296
5718,1577,44301
5719,1543,44306
5720,1507,44310
5721,1481,44315
5722,1469,44320
5723,1412,44325
5724,1366,44331
5725,1409,44335
5726,1485,44340
5727,1533,44345
5728,1543,44350
5729,1554,44354
5730,1564,44359
5731,1564,44364
5732,1558,44369
5733,1547,44374
5734,1518,44379
5735,1473,44384
5736,1436,44389
5737,1412,44394
5738,1390,44398
5739,1395,44403
5740,1436,44408
5741,1478,44413
5742,1506,44418
5743,1560,44423
5744,1589,44428
5745,1596,44433
5746,1588,44437
5747,1579,44442
5748,1565,44447
5749,1551,44452
5750,1533,44456
5751,1454,44462
5752,1362,44467
5753,1372,44472
5754,1431,44477
5755,1471,44481
5756,1510,44486
5757,1526,44491
5758,1528,44496
5759,1528,44500
5760,1543,44506
5761,1550,44511
5762,1543,44516
5763,1544,44520
5764,1533,44525
5765,1468,44530
5766,1346,44535
5767,1336,44540
5768,1430,44545
5769,1509,44550
5770,1557,44555
5771,1567,44560
5772,1576,44564
5773,1589,44569
5774,1586,44574
5775,1565,44579
5776,1532,44583
5777,1479,44589
5778,1435,44594
5779,1421,44599
5780,1459,44604
5781,1495,44608
5782,1521,44613
5783,1525,44618
5784,1525,44623
5785,1526,44627
5786,1532,44633
5787,1514,44638
5788,1465,44643
5789,1436,44647
5790,1442,44652
5791,1442,44657
5792,1381,44662
5793,1345,44666
5794,1383,44672
5795,1475,44677
5796,1556,44682
5797,1587,44687
5798,1595,44691
5799,1592,44696
5800,1586,44701
5801,1576,44706
5802,1568,44710
5803,1549,44716
5804,1517,44721
5805,1476,44726
5806,1438,44730
5807,1437,44735
5808,1427,44740
5809,1416,44745
5810,1407,44750
5811,1415,44754
5812,1470,44760
5813,1506,44765
5814,1530,44770
5815,1554,44774
5816,1566,44779
5817,1573,44784
5818,1571,44789
5819,1543,44793
5820,1492,44798
5821,1443,44804
5822,1421,44809
5823,1421,44814
5824,1378,44818
5825,1398,44823
5826,1427,44828
5827,1425,44833
5828,1448,44837
5829,1505,44843
5830,1552,44848
5831,1580,44853
5832,1587,44857
5833,1575,44862
5834,1551,44867
5835,1532,44872
5836,1512,44876
5837,1438,44881
5838,1356,44887
5839,1330,44892
5840,1392,44897
5841,1469,44901
5842,1536,44906
5843,1574,44911
5844,1594,44916
5845,1601,44920
5846,1603,44925
5847,1578,44931
5848,1514,44936
5849,1441,44940
5850,1408,44945
5851,1443,44950
5852,1477,44955
5853,1478,44960
5854,1476,44964
5855,1512,44969
5856,1551,44975
5857,1574,44980
5858,1578,44984
5859,1571,44989
5860,1555,44994
5861,1536,44999
5862,1486,45003
5863,1456,45008
5864,1458,45014
5865,1464,45019
5866,1396,45023
5867,1312,45028
5868,1333,45033
5869,1425,45038
5870,1517,45043
5871,1562,45047
5872,1590,45052
5873,1597,45058
5874,1596,45063
5875,1590,45067
5876,1563,45072
5877,1514,45077
5878,1478,45082
5879,1463,45086
5880,1464,45091
5881,1424,45096
5882,1401,45102
5883,1445,45107
5884,1496,45111
5885,1511,45116
5886,1532,45121
5887,1546,45126
5888,1549,45130
5889,1545,45135
5890,1536,45140
5891,1495,45146
5892,1426,45150
5893,1406,45155
5894,1425,45160
5895,1424,45165
5896,1397,45169
5897,1428,45174
5898,1494,45179
5899,1545,45185
5900,1573,45190
5901,1582,45194
5902,1581,45199
5903,1571,45204
5904,1552,45209
5905,1509,45213
5906,1469,45218
5907,1444,45223
5908,1425,45229
5909,1393,45233
5910,1313,45238
5911,1299,45243
5912,1368,45248
5913,1466,45253
5914,1548,45257
5915,1591,45262
5916,1610,45267
5917,1607,45273
5918,1598,45277
5919,1591,45282
5920,1572,45287
5921,1489,45292
5922,1436,45296
5923,1441,45301
5924,1477,45306
5925,1451,45312
5926,1386,45316
5927,1378,45321
5928,1437,45326
5929,1496,45331
5930,1540,45336
5931,1560,45340
5932,1575,45345
5933,1572,45350
5934,1561,45356
5935,1535,45360
5936,1493,45365
5937,1431,45370
5938,1404,45375
5939,1413,45379
5940,1444,45384
5941,1476,45389
5942,1492,45394
5943,1505,45400
5944,1503,45404
5945,1507,45409
5946,1516,45414
5947,1525,45419
5948,1547,45423
5949,1543,45428
5950,1524,45433
5951,1481,45438
5952,1449,45443
5953,1467,45448
5954,1487,45453
5955,1475,45458
5956,1455,45462
5957,1478,45467
5958,1521,45472
5959,1547,45477
5960,1555,45483
5961,1550,45487
5962,1546,45492
5963,1554,45497
5964,1518,45502
5965,1469,45506
5966,1461,45511
5967,1466,45516
5968,1442,45521
5969,1428,45526
5970,1442,45531
5971,1487,45536
5972,1516,45541
5973,1500,45546
5974,1427,45550
5975,1436,45555
5976,1498,45560
5977,1548,45565
5978,1563,45570
5979,1546,45575
5980,1542,45580
5981,1541,45585
5982,1536,45589
5983,1464,45594
5984,1362,45599
5985,1361,45604
5986,1432,45608
5987,1496,45614
5988,1497,45619
5989,1501,45624
5990,1537,45629
5991,1566,45633
5992,1576,45638
5993,1565,45643
5994,1557,45648
5995,1543,45652
5996,1507,45658
5997,1436,45663
5998,1427,45668
5999,1462,45672
6000,1474,45677
6001,1387,45682
6002,1372,45687
6003,1431,45692
6004,1522,45697
6005,1567,45702
6006,1581,45707
6007,1563,45712
6008,1547,45716
6009,1540,45721
6010,1530,45726
6011,1494,45731
6012,1480,45735
6013,1414,45741
6014,1303,45746
6015,1259,45751
6016,1359,45755
6017,1467,45760
6018,1548,45765
6019,1583,45770
6020,1601,45775
6021,1605,45779
6022,1604,45785
6023,1593,45790
6024,1564,45795
6025,1498,45799
6026,1454,45804
6027,1427,45809
6028,1390,45814
6029,1391,45818
6030,1429,45824
6031,1468,45829
6032,1500,45834
6033,1515,45839
6034,1536,45843
6035,1550,45848
6036,1557,45853
6037,1558,45858
6038,1543,45862
6039,1437,45868
6040,1370,45873
6041,1380,45878
6042,1373,45882
6043,1325,45887
6044,1370,45892
6045,1474,45897
6046,1555,45902
6047,1576,45906
6048,1587,45912
6049,1591,45917
6050,1595,45922
6051,1597,45926
6052,1584,45931
6053,1570,45936
6054,1559,45941
6055,1536,45945
6056,1444,45950
6057,1359,45956
6058,1346,45961
6059,1403,45965
6060,1448,45970
6061,1450,45975
6062,1461,45980
6063,1496,45985
6064,1547,45989
6065,1579,45995
6066,1597,46000
6067,1599,46005
6068,1587,46009
6069,1570,46014
6070,1552,46019
6071,1493,46024
6072,1405,46028
6073,1329,46033
6074,1334,46039
6075,1409,46044
6076,1460,46049
6077,1473,46053
6078,1512,46058
6079,1556,46063
6080,1587,46068
6081,1595,46072
6082,1594,46077
6083,1587,46083
6084,1576,46088
6085,1543,46092
6086,1481,46097
6087,1400,46102
6088,1373,46107
6089,1350,46112
6090,1398,46116
6091,1459,46121
6092,1509,46127
6093,1538,46132
6094,1559,46136
6095,1572,46141
6096,1580,46146
6097,1577,46151
6098,1568,46155
6099,1538,46160
6100,1496,46166
6101,1451,46171
6102,1435,46175
6103,1426,46180
6104,1389,46185
6105,1349,46190
6106,1333,46195
6107,1364,46199
6108,1459,46204
6109,1543,46210
6110,1588,46215
6111,1602,46219
6112,1604,46224
6113,1596,46229
6114,1583,46234
6115,1563,46238
6116,1503,46243
6117,1426,46248
6118,1394,46254
6119,1396,46259
6120,1437,46263
6121,1477,46268
6122,1513,46273
6123,1538,46278
6124,1520,46282
6125,1500,46287
6126,1516,46292
6127,1544,46298
6128,1555,46302
6129,1556,46307
6130,1523,46312
6131,1445,46317
6132,1400,46321
6133,1422,46326
6134,1457,46331
6135,1424,46337
6136,1377,46342
6137,1411,46346
6138,1495,46351
6139,1543,46356
6140,1576,46361
6141,1592,46365
6142,1596,46370
6143,1589,46375
6144,1580,46381
6145,1561,46385
6146,1522,46390
6147,1451,46395
6148,1386,46400
6149,1372,46405
6150,1301,46409
6151,1240,46414
6152,1300,46419
6153,1416,46425
6154,1522,46429
6155,1573,46434
6156,1611,46439
6157,1626,46444
6158,1625,46448
6159,1614,46453
6160,1603,46458
6161,1589,46464
6162,1571,46468
6163,1541,46473
6164,1489,46478
6165,1457,46483
6166,1449,46488
6167,1468,46492
6168,1435,46497
6169,1423,46502
6170,1451,46508
6171,1497,46512
6172,1520,46517
6173,1521,46522
6174,1525,46527
6175,1541,46531
6176,1550,46536
6177,1517,46541
6178,1453,46546
6179,1407,46552
6180,1392,46556
6181,1385,46561
6182,1416,46566
6183,1440,46571
6184,1415,46575
6185,1406,46580
6186,1447,46585
6187,1522,46590
6188,1572,46595
6189,1605,46600
6190,1618,46605
6191,1615,46610
6192,1606,46614
6193,1581,46619
6194,1530,46624
6195,1478,46629
6196,1408,46635
6197,1411,46639
6198,1462,46644
6199,1515,46649
6200,1551,46654
6201,1542,46658
6202,1481,46663
6203,1471,46668
6204,1500,46673
6205,1525,46678
6206,1495,46683
6207,1474,46688
6208,1463,46693
6209,1471,46698
6210,1484,46702
6211,1451,46707
6212,1412,46712
6213,1437,46717
6214,1518,46722
6215,1560,46727
6216,1572,46732
6217,1546,46737
6218,1546,46741
6219,1558,46746
6220,1570,46751
6221,1564,46756
6222,1535,46760
6223,1477,46766
6224,1304,46771
6225,1236,46776
6226,1325,46781
6227,1446,46785
6228,1517,46790
6229,1532,46795
6230,1549,46800
6231,1568,46804
6232,1587,46810
6233,1591,46815
6234,1585,46820
6235,1541,46824
6236,1479,46829
6237,1443,46834
6238,1437,46839
6239,1434,46844
6240,1429,46849
6241,1458,46854
6242,1524,46859
6243,1560,46864
6244,1568,46868
6245,1563,46873
6246,1566,46878
6247,1572,46883
6248,1572,46887
6249,1510,46893
6250,1416,46898
6251,1388,46903
6252,1427,46907
6253,1454,46912
6254,1414,46917
6255,1411,46922
6256,1463,46927
6257,1526,46931
6258,1567,46937
6259,1588,46942
6260,1595,46947
6261,1594,46951
6262,1584,46956
6263,1550,46961
6264,1504,46966
6265,1445,46970
6266,1411,46976
6267,1348,46981
6268,1348,46986
6269,1393,46991
6270,1404,46995
6271,1438,47000
6272,1504,47005
6273,1550,47010
6274,1585,47014
6275,1603,47020
6276,1604,47025
6277,1596,47030
6278,1586,47034
6279,1562,47039
6280,1497,47044
6281,1456,47049
6282,1456,47053
6283,1449,47058
6284,1382,47064
6285,1244,47069
6286,1196,47074
6287,1283,47078
6288,1432,47083
6289,1528,47088
6290,1588,47093
6291,1618,47097
6292,1626,47102
6293,1621,47108
6294,1611,47113
6295,1579,47117
6296,1535,47122
6297,1516,47127
6298,1519,47132
6299,1527,47137
6300,1480,47141
6301,1379,47147
6302,1292,47152
6303,1335,47157
6304,1439,47161
6305,1517,47166
6306,1554,47171
6307,1545,47176
6308,1531,47180
6309,1533,47185
6310,1555,47191
6311,1573,47196
6312,1541,47200
6313,1476,47205
6314,1470,47210
6315,1478,47215
6316,1455,47220
6317,1366,47224
6318,1345,47229
6319,1409,47235
6320,1501,47240
6321,1555,47244
6322,1571,47249
6323,1575,47254
6324,1570,47259
6325,1556,47263
6326,1561,47268
6327,1550,47273
6328,1493,47279
6329,1384,47284
6330,1316,47288
6331,1326,47293
6332,1416,47298
6333,1503,47303
6334,1538,47307
6335,1464,47312
6336,1457,47318
6337,1505,47323
6338,1552,47327
6339,1581,47332
6340,1590,47337
6341,1593,47342
6342,1583,47347
6343,1459,47351
6344,1272,47356
6345,1286,47362
6346,1366,47367
6347,1320,47371
6348,1254,47376
6349,1319,47381
6350,1431,47386
6351,1547,47390
6352,1613,47395
6353,1650,47400
6354,1659,47406
6355,1650,47411
6356,1630,47415
6357,1602,47420
6358,1570,47425
6359,1563,47430
6360,1531,47434
6361,1358,47439
6362,1137,47444
6363,1157,47450
6364,1333,47454
6365,1447,47459
6366,1523,47464
6367,1555,47469
6368,1573,47473
6369,1594,47478
6370,1600,47483
6371,1590,47489
6372,1570,47494
6373,1541,47498
6374,1476,47503
6375,1379,47508
6376,1283,47513
6377,1240,47517
6378,1360,47522
6379,1482,47527
6380,1512,47533
6381,1526,47537
6382,1552,47542
6383,1599,47547
6384,1616,47552
6385,1608,47557
6386,1597,47561
6387,1595,47566
6388,1580,47571
6389,1501,47577
6390,1327,47581
6391,1302,47586
6392,1385,47591
6393,1467,47596
6394,1444,47600
6395,1412,47605
6396,1430,47610
6397,1465,47616
6398,1491,47621
6399,1550,47625
6400,1572,47630
6401,1569,47635
6402,1529,47640
6403,1455,47644
6404,1386,47649
6405,1325,47654
6406,1382,47660
6407,1474,47664
6408,1541,47669
6409,1568,47674
6410,1584,47679
6411,1530,47683
6412,1391,47688
6413,1328,47693
6414,1417,47698
6415,1541,47704
6416,1597,47708
6417,1588,47713
6418,1552,47718
6419,1521,47723
6420,1514,47727
6421,1529,47732
6422,1546,47737
6423,1506,47742
6424,1332,47747
6425,1302,47752
6426,1378,47757
6427,1446,47762
6428,1483,47767
6429,1542,47771
6430,1574,47776
6431,1589,47781
6432,1576,47787
6433,1500,47791
6434,1428,47796
6435,1445,47801
6436,1416,47806
6437,1342,47810
6438,1308,47815
6439,1355,47820
6440,1417,47825
6441,1440,47831
6442,1513,47835
6443,1592,47840
6444,1616,47845
6445,1619,47850
6446,1614,47854
6447,1567,47859
6448,1427,47864
6449,1384,47869
6450,1416,47874
6451,1368,47879
6452,1341,47884
6453,1425,47889
6454,1518,47893
6455,1542,47898
6456,1571,47903
6457,1599,47908
6458,1613,47913
6459,1607,47918
6460,1591,47923
6461,1539,47928
6462,1452,47933
6463,1414,47937
6464,1435,47942
6465,1420,47947
6466,1376,47952
6467,1371,47956
6468,1279,47962
6469,1212,47967
6470,1289,47972
6471,1421,47977
6472,1540,47981
6473,1618,47986
6474,1639,47991
6475,1637,47996
6476,1625,48001
6477,1606,48006
6478,1575,48011
6479,1544,48016
6480,1526,48020
6481,1490,48025
6482,1409,48030
6483,1381,48035
6484,1428,48040
6485,1463,48045
6486,1436,48050
6487,1436,48055
6488,1464,48060
6489,1514,48064
6490,1546,48069
6491,1570,48074
6492,1575,48079
6493,1564,48083
6494,1547,48089
6495,1535,48094
6496,1460,48099
6497,1365,48103
6498,1337,48108
6499,1388,48113
6500,1309,48118
6501,1141,48123
6502,1222,48128
6503,1458,48133
6504,1585,48138
6505,1651,48143
6506,1666,48147
6507,1653,48152
6508,1636,48157
6509,1621,48162
6510,1600,48166
6511,1582,48172
6512,1563,48177
6513,1535,48182
6514,1469,48187
6515,1402,48191
6516,1389,48196
6517,1395,48201
6518,1377,48206
6519,1409,48210
6520,1490,48216
6521,1560,48221
6522,1584,48226
6523,1585,48230
6524,1572,48235
6525,1559,48240
6526,1549,48245
6527,1538,48249
6528,1516,48254
6529,1469,48260
6530,1447,48265
6531,1439,48270
6532,1449,48274
6533,1451,48279
6534,1467,48284
6535,1481,48289
6536,1510,48293
6537,1539,48299
6538,1559,48304
6539,1562,48309
6540,1558,48313
6541,1553,48318
6542,1546,48323
6543,1541,48328
6544,1532,48333
6545,1523,48337
6546,1513,48343
6547,1505,48348
6548,1503,48353
6549,1500,48357
6550,1500,48362
6551,1493,48367
6552,1490,48372
6553,1496,48376
6554,1510,48381
6555,1519,48387
6556,1524,48392
6557,1524,48396
6558,1524,48401
6559,1524,48406
6560,1520,48411
6561,1511,48416
6562,1507,48420
6563,1507,48425
6564,1506,48431
6565,1494,48436
6566,1477,48440
6567,1470,48445
6568,1478,48450
6569,1486,48455
6570,1498,48459
6571,1511,48464
6572,1518,48470
6573,1520,48475
6574,1504,48480
6575,1494,48484
6576,1501,48489
6577,1517,48494
6578,1528,48499
6579,1535,48503
6580,1540,48508
6581,1537,48514
6582,1530,48519
6583,1528,48523
6584,1532,48528
6585,1535,48533
6586,1533,48538
6587,1532,48543
6588,1529,48547
6589,1511,48552
6590,1479,48558
6591,1459,48563
6592,1450,48567
6593,1418,48572
6594,1370,48577
6595,1358,48582
6596,1395,48586
6597,1424,48591
6598,1370,48596
6599,1379,48602
6600,1389,48606
6601,1392,48611
6602,1400,48616
6603,1411,48621
6604,1421,48626
6605,1428,48630
6606,1432,48635
6607,1429,48641
6608,1420,48646
6609,1418,48650
6610,1406,48655
6611,1384,48660
6612,1395,48665
6613,1438,48669
6614,1474,48674
6615,1498,48679
6616,1515,48685
6617,1522,48690
6618,1519,48694
6619,1512,48699
6620,1508,48704
6621,1507,48709
6622,1504,48713
6623,1482,48714
6624,1478,48719
6625,1473,48723
6626,1472,48728
6627,1475,48734
6628,1480,48739
6629,1486,48743
6630,1493,48748
6631,1493,48753
6632,1491,48758
6633,1486,48762
6634,1483,48767
6635,1476,48772
6636,1468,48778
6637,1472,48783
6638,1476,48787
6639,1471,48792
6640,1466,48797
6641,1474,48802
6642,1483,48806
6643,1486,48811
6644,1485,48817
6645,1488,48822
6646,1497,48826
6647,1504,48831
6648,1510,48836
6649,1507,48841
6650,1496,48845
6651,1490,48850
6652,1494,48855
6653,1499,48861
6654,1506,48866
6655,1507,48870
6656,1500,48875
6657,1492,48880
6658,1493,48885
6659,1499,48889
6660,1503,48894
6661,1503,48899
6662,1498,48905
6663,1494,48909
6664,1490,48914
6665,1489,48919
6666,1487,48924
6667,1479,48929
6668,1474,48933
6669,1476,48938
6670,1477,48943
6671,1482,48949
6672,1490,48953
6673,1495,48958
6674,1501,48963
6675,1506,48968
6676,1510,48972
6677,1509,48977
6678,1502,48982
6679,1498,48988
6680,1497,48992
6681,1494,48997
6682,1490,49002
6683,1486,49007
6684,1479,49012
6685,1476,49016
6686,1477,49021
6687,1475,49026
6688,1469,49032
6689,1473,49036
6690,1485,49041
6691,1495,49046
6692,1503,49051
6693,1506,49055
6694,1508,49060
6695,1512,49065
6696,1514,49070
6697,1515,49075
6698,1511,49080
6699,1502,49085
6700,1496,49090
6701,1497,49095
6702,1504,49099
6703,1509,49104
6704,1510,49109
6705,1502,49114
6706,1490,49119
6707,1488,49124
6708,1494,49129
6709,1495,49134
6710,1492,49138
6711,1496,49143
6712,1496,49148
6713,1493,49153
6714,1494,49159
6715,1496,49163
6716,1499,49168
6717,1498,49173
6718,1493,49178
6719,1485,49182
6720,1487,49187
6721,1498,49192
6722,1501,49197
6723,1500,49202
6724,1505,49207
6725,1512,49212
6726,1514,49217
6727,1512,49221
6728,1509,49226
6729,1504,49231
6730,1504,49236
6731,1506,49241
6732,1508,49246
6733,1505,49251
6734,1499,49256
6735,1486,49261
6736,1476,49265
6737,1481,49270
6738,1495,49275
6739,1502,49280
6740,1504,49284
6741,1507,49290
6742,1506,49295
6743,1503,49300
6744,1503,49305
6745,1503,49309
6746,1502,49314
6747,1498,49319
6748,1495,49324
6749,1491,49329
6750,1484,49334
6751,1480,49339
6752,1478,49344
6753,1472,49348
6754,1455,49353
6755,1445,49358
6756,1457,49363
6757,1468,49367
6758,1476,49373
6759,1487,49378
6760,1493,49383
6761,1500,49388
6762,1503,49392
6763,1502,49397
6764,1499,49402
6765,1497,49407
6766,1496,49411
6767,1489,49417
6768,1477,49422
6769,1480,49427
6770,1490,49431
6771,1497,49436
6772,1497,49441
6773,1498,49446
6774,1504,49451
6775,1508,49455
6776,1514,49461
6777,1517,49466
6778,1518,49471
6779,1518,49475
6780,1514,49480
6781,1513,49485
6782,1510,49490
6783,1503,49494
6784,1490,49500
6785,1485,49505
6786,1491,49510
6787,1490,49514
6788,1480,49519
6789,1475,49524
6790,1484,49529
6791,1496,49534
6792,1504,49538
6793,1509,49544
6794,1511,49549
6795,1512,49554
6796,1510,49558
6797,1508,49563
6798,1504,49568
6799,1500,49573
6800,1498,49577
6801,1497,49582
6802,1495,49588
6803,1489,49593
6804,1487,49598
6805,1485,49602
6806,1475,49607
6807,1465,49612
6808,1460,49617
6809,1468,49621
6810,1485,49626
6811,1497,49632
6812,1503,49637
6813,1502,49641
6814,1503,49646
6815,1507,49651
6816,1509,49656
6817,1508,49660
6818,1509,49665
6819,1508,49671
6820,1500,49676
6821,1494,49681
6822,1496,49685
6823,1505,49690
6824,1511,49695
6825,1509,49700
6826,1505,49704
6827,1505,49709
6828,1507,49715
6829,1503,49720
6830,1499,49724
6831,1496,49729
6832,1495,49734
6833,1493,49739
6834,1491,49744
6835,1494,49748
6836,1491,49753
6837,1485,49759
6838,1487,49764
6839,1493,49768
6840,1499,49773
6841,1493,49778
6842,1483,49783
6843,1485,49787
6844,1487,49792
6845,1488,49798
6846,1490,49803
6847,1499,49807
6848,1506,49812
6849,1510,49817
6850,1514,49822
6851,1515,49827
6852,1514,49831
6853,1504,49836
6854,1500,49842
6855,1501,49847
6856,1506,49851
6857,1504,49856
6858,1494,49861
6859,1486,49866
6860,1488,49870
6861,1497,49875
6862,1501,49880
6863,1487,49886
6864,1471,49891
6865,1476,49895
6866,1493,49900
6867,1502,49905
6868,1507,49910
6869,1506,49914
6870,1503,49919
6871,1501,49924
6872,1501,49930
6873,1496,49934
6874,1493,49939
6875,1490,49944
6876,1483,49949
6877,1473,49953
6878,1468,49958
6879,1471,49963
6880,1469,49969
6881,1467,49974
6882,1474,49978
6883,1480,49983
6884,1480,49988
6885,1483,49993
6886,1490,49997
6887,1494,50002
6888,1495,50007
6889,1496,50013
6890,1499,50017
6891,1504,50022
6892,1502,50027
6893,1500,50032
6894,1497,50037
6895,1496,50041
6896,1493,50046
6897,1488,50051
6898,1485,50057
6899,1484,50061
6900,1483,50066
6901,1474,50071
6902,1472,50076
6903,1484,50080
6904,1496,50085
6905,1506,50090
6906,1512,50095
6907,1517,50100
6908,1518,50105
6909,1515,50110
6910,1513,50115
6911,1508,50120
6912,1505,50124
6913,1506,50129
6914,1507,50134
6915,1507,50140
6916,1503,50144
6917,1493,50149
6918,1480,50154
6919,1470,50159
6920,1474,50163
6921,1484,50168
6922,1492,50173
6923,1497,50178
6924,1502,50184
6925,1507,50188
6926,1510,50193
6927,1507,50198
6928,1502,50203
6929,1500,50207
6930,1500,50212
6931,1498,50217
6932,1494,50222
6933,1494,50227
6934,1489,50232
6935,1479,50237
6936,1474,50242
6937,1479,50246
6938,1488,50251
6939,1489,50256
6940,1489,50261
6941,1494,50266
6942,1500,50271
6943,1502,50276
6944,1506,50281
6945,1512,50286
6946,1513,50290
6947,1512,50295
6948,1510,50300
6949,1510,50305
6950,1513,50310
6951,1515,50315
6952,1512,50320
6953,1498,50325
6954,1481,50330
6955,1480,50334
6956,1478,50339
6957,1471,50344
6958,1470,50349
6959,1477,50354
6960,1486,50359
6961,1493,50364
6962,1498,50369
6963,1499,50373
6964,1498,50378
6965,1500,50383
6966,1502,50388
6967,1500,50393
6968,1497,50398
6969,1494,50403
6970,1495,50408
6971,1499,50413
6972,1495,50417
6973,1491,50422
6974,1492,50427
6975,1493,50432
6976,1495,50436
6977,1496,50442
6978,1497,50447
6979,1500,50452
6980,1500,50456
6981,1502,50461
6982,1506,50466
6983,1507,50471
6984,1505,50476
6985,1502,50481
6986,1492,50486
6987,1489,50491
6988,1493,50496
6989,1499,50500
6990,1499,50505
6991,1496,50510
6992,1493,50515
6993,1493,50519
6994,1494,50525
6995,1493,50530
6996,1486,50535
6997,1485,50540
6998,1492,50544
6999,1497,50549
7000,1500,50554
7001,1501,50559
7002,1500,50563
7003,1498,50569
7004,1497,50574
7005,1495,50579
7006,1496,50583
7007,1496,50588
7008,1495,50593
7009,1494,50598
7010,1493,50602
7011,1493,50607
7012,1493,50613
7013,1490,50618
7014,1482,50623
7015,1473,50627
7016,1475,50632
7017,1482,50637
7018,1491,50642
7019,1501,50646
7020,1505,50652
7021,1507,50657
7022,1506,50662
7023,1503,50666
7024,1505,50671
7025,1506,50676
7026,1504,50681
7027,1494,50685
7028,1481,50690
7029,1475,50696
7030,1482,50701
7031,1493,50706
7032,1503,50710
7033,1503,50715
7034,1495,50720
7035,1492,50725
7036,1498,50729
7037,1501,50734
7038,1504,50740
7039,1509,50745
7040,1511,50749
7041,1509,50754
7042,1499,50759
7043,1492,50764
7044,1497,50769
7045,1503,50773
7046,1499,50778
7047,1491,50784
7048,1487,50789
7049,1493,50793
7050,1501,50798
7051,1506,50803
7052,1506,50808
7053,1505,50812
7054,1505,50817
7055,1505,50823
7056,1507,50828
7057,1507,50832
7058,1498,50837
7059,1485,50842
7060,1483,50847
7061,1489,50852
7062,1484,50856
7063,1469,50861
7064,1468,50867
7065,1474,50872
7066,1477,50876
7067,1488,50881
7068,1498,50886
7069,1506,50891
7070,1510,50895
7071,1510,50900
7072,1509,50905
7073,1509,50911
7074,1507,50916
7075,1501,50920
7076,1493,50925
7077,1494,50930
7078,1494,50935
7079,1491,50939
7080,1482,50944
7081,1479,50950
7082,1483,50955
7083,1484,50959
7084,1485,50964
7085,1489,50969
7086,1492,50974
7087,1495,50978
7088,1501,50983
7089,1507,50988
7090,1508,50994
7091,1504,50999
7092,1494,51003
7093,1480,51008
7094,1482,51013
7095,1490,51018
7096,1494,51022
7097,1496,51027
7098,1486,51032
7099,1472,51038
7100,1469,51042
7101,1477,51047
7102,1485,51052
7103,1490,51057
7104,1493,51062
7105,1497,51066
7106,1502,51071
7107,1505,51076
7108,1507,51082
7109,1510,51086
7110,1511,51091
7111,1508,51096
7112,1508,51101
7113,1507,51105
7114,1505,51110
7115,1503,51115
7116,1488,51121
7117,1478,51126
7118,1484,51130
7119,1498,51135
7120,1506,51140
7121,1503,51145
7122,1497,51149
7123,1492,51154
7124,1492,51159
7125,1489,51165
7126,1485,51169
7127,1484,51174
7128,1483,51179
7129,1483,51184
7130,1485,51188
7131,1485,51193
7132,1481,51198
7133,1470,51203
7134,1463,51209
7135,1466,51213
7136,1472,51218
7137,1486,51223
7138,1496,51228
7139,1503,51232
7140,1506,51237
7141,1508,51242
7142,1510,51247
7143,1512,51252
7144,1512,51257
7145,1510,51262
7146,1510,51267
7147,1510,51272
7148,1508,51276
7149,1503,51281
7150,1495,51286
7151,1486,51292
7152,1484,51296
7153,1489,51301
7154,1496,51306
7155,1503,51311
7156,1504,51315
7157,1505,51320
7158,1505,51325
7159,1500,51330
7160,1493,51335
7161,1493,51340
7162,1496,51345
7163,1496,51350
7164,1497,51355
7165,1497,51359
7166,1489,51364
7167,1476,51369
7168,1478,51374
7169,1490,51379
7170,1499,51384
7171,1503,51389
7172,1506,51394
7173,1505,51398
7174,1502,51403
7175,1502,51408
7176,1498,51413
7177,1494,51418
7178,1494,51423
7179,1495,51428
7180,1490,51433
7181,1479,51438
7182,1475,51442
7183,1481,51447
7184,1489,51452
7185,1491,51457
7186,1491,51462
7187,1489,51467
7188,1490,51472
7189,1496,51477
7190,1500,51482
7191,1500,51486
7192,1501,51491
7193,1496,51496
7194,1483,51501
7195,1473,51506
7196,1473,51511
7197,1483,51516
7198,1491,51521
7199,1499,51525
7200,1504,51530
7201,1508,51535
7202,1505,51540
7203,1501,51544
7204,1503,51550
7205,1505,51555
7206,1503,51560
7207,1501,51565
7208,1497,51569
7209,1484,51574
7210,1472,51579
7211,1475,51584
7212,1483,51588
7213,1491,51594
7214,1496,51599
7215,1498,51604
7216,1500,51608
7217,1500,51613
7218,1498,51618
7219,1496,51623
7220,1496,51628
7221,1499,51633
7222,1497,51638
7223,1492,51643
7224,1486,51648
7225,1485,51652
7226,1486,51657
7227,1486,51662
7228,1487,51667
7229,1488,51671
7230,1493,51677
7231,1498,51682
7232,1502,51687
7233,1504,51691
7234,1502,51696
7235,1501,51701
7236,1500,51706
7237,1502,51711
7238,1503,51715
7239,1498,51721
7240,1482,51726
7241,1471,51731
7242,1477,51735
7243,1488,51740
7244,1497,51745
7245,1504,51750
7246,1508,51754
7247,1508,51759
7248,1506,51765
7249,1503,51770
7250,1498,51775
7251,1496,51779
7252,1499,51784
7253,1497,51789
7254,1486,51794
7255,1479,51798
7256,1476,51804
7257,1479,51809
7258,1480,51814
7259,1481,51818
7260,1487,51823
7261,1499,51828
7262,1507,51833
7263,1510,51837
7264,1508,51842
7265,1507,51848
7266,1507,51853
7267,1506,51858
7268,1502,51862
7269,1497,51867
7270,1493,51872
7271,1489,51877
7272,1487,51881
7273,1490,51886
7274,1493,51892
7275,1485,51897
7276,1483,51901
7277,1489,51906
7278,1496,51911
7279,1498,51916
7280,1491,51921
7281,1492,51925
7282,1497,51930
7283,1501,51936
7284,1504,51941
7285,1505,51945
7286,1505,51950
7287,1501,51955
7288,1496,51960
7289,1491,51964
7290,1491,51969
7291,1491,51975
7292,1486,51980
7293,1480,51984
7294,1478,51989
7295,1479,51994
7296,1483,51999
7297,1488,52004
7298,1495,52008
7299,1500,52013
7300,1503,52019
7301,1505,52024
7302,1507,52028
7303,1507,52033
7304,1505,52038
7305,1501,52043
7306,1498,52047
7307,1498,52052
7308,1498,52057
7309,1491,52063
7310,1480,52068
7311,1482,52072
7312,1492,52077
7313,1504,52082
7314,1514,52087
7315,1519,52091
7316,1516,52096
7317,1506,52102
7318,1500,52107
7319,1494,52111
7320,1490,52116
7321,1483,52121
7322,1477,52126
7323,1474,52130
7324,1473,52135
7325,1465,52140
7326,1456,52146
7327,1463,52151
7328,1478,52155
7329,1486,52160
7330,1492,52165
7331,1498,52170
7332,1503,52174
7333,1508,52179
7334,1513,52184
7335,1515,52190
7336,1515,52194
7337,1510,52199
7338,1499,52204
7339,1493,52209
7340,1496,52214
7341,1497,52218
7342,1495,52223
7343,1493,52228
7344,1494,52234
7345,1500,52238
7346,1505,52243
7347,1510,52248
7348,1510,52253
7349,1506,52257
7350,1502,52262
7351,1503,52267
7352,1505,52273
7353,1507,52277
7354,1504,52282
7355,1497,52287
7356,1486,52292
7357,1477,52297
7358,1474,52301
7359,1487,52306
7360,1500,52311
7361,1502,52317
7362,1505,52321
7363,1507,52326
7364,1509,52331
7365,1510,52336
7366,1508,52340
7367,1503,52345
7368,1492,52350
7369,1485,52355
7370,1483,52360
7371,1485,52365
7372,1486,52370
7373,1486,52375
7374,1480,52380
7375,1478,52384
7376,1482,52389
7377,1491,52394
7378,1493,52399
7379,1490,52404
7380,1489,52409
7381,1495,52414
7382,1497,52419
7383,1495,52423
7384,1494,52428
7385,1490,52433
7386,1482,52438
7387,1483,52444
7388,1487,52448
7389,1490,52453
7390,1491,52458
7391,1494,52463
7392,1495,52467
7393,1489,52472
7394,1486,52477
7395,1488,52482
7396,1496,52487
7397,1502,52492
7398,1505,52497
7399,1504,52502
7400,1498,52506
7401,1493,52511
7402,1490,52516
7403,1487,52521
7404,1482,52526
7405,1479,52531
7406,1481,52536
7407,1487,52541
7408,1497,52546
7409,1506,52550
7410,1510,52555
7411,1510,52560
7412,1508,52565
7413,1508,52569
7414,1507,52575
7415,1503,52580
7416,1496,52585
7417,1492,52590
7418,1487,52594
7419,1475,52599
7420,1472,52604
7421,1478,52609
7422,1483,52614
7423,1487,52619
7424,1494,52624
7425,1501,52629
7426,1506,52633
7427,1506,52638
7428,1504,52643
7429,1504,52648
7430,1504,52652
7431,1503,52658
7432,1501,52663
7433,1497,52668
7434,1496,52673
7435,1493,52677
7436,1485,52682
7437,1478,52687
7438,1474,52692
7439,1472,52696
7440,1479,52702
7441,1490,52707
7442,1498,52712
7443,1500,52716
7444,1498,52721
7445,1497,52726
7446,1498,52731
7447,1501,52736
7448,1503,52740
7449,1502,52746
7450,1500,52751
7451,1497,52756
7452,1491,52760
7453,1482,52765
7454,1476,52770
7455,1479,52775
7456,1480,52779
7457,1482,52785
7458,1490,52790
7459,1500,52795
7460,1505,52799
7461,1505,52804
7462,1507,52809
7463,1508,52814
7464,1507,52819
7465,1506,52823
7466,1505,52829
7467,1497,52834
7468,1482,52839
7469,1475,52843
7470,1482,52848
7471,1490,52853
7472,1495,52858
7473,1497,52862
7474,1503,52867
7475,1507,52873
7476,1508,52878
7477,1508,52883
7478,1511,52887
7479,1511,52892
7480,1509,52897
7481,1497,52902
7482,1481,52906
7483,1472,52911
7484,1476,52917
7485,1479,52922
7486,1473,52926
7487,1479,52931
7488,1494,52936
7489,1503,52941
7490,1509,52945
7491,1512,52950
7492,1513,52956
7493,1513,52961
7494,1512,52966
7495,1507,52970
7496,1504,52975
7497,1501,52980
7498,1498,52985
7499,1495,52989
7500,1484,52994
7501,1479,53000
7502,1484,53005
7503,1492,53009
7504,1493,53014
7505,1496,53019
7506,1502,53024
7507,1511,53029
7508,1512,53033
7509,1506,53038
7510,1500,53044
7511,1495,53049
7512,1492,53053
7513,1488,53058
7514,1481,53063
7515,1474,53068
7516,1468,53072
7517,1465,53077
7518,1465,53082
7519,1472,53088
7520,1479,53092
7521,1477,53097
7522,1479,53102
7523,1493,53107
7524,1503,53112
7525,1509,53116
7526,1510,53121
7527,1511,53127
7528,1513,53132
7529,1513,53136
7530,1510,53141
7531,1506,53146
7532,1501,53151
7533,1490,53155
7534,1481,53160
7535,1482,53165
7536,1490,53171
7537,1495,53176
7538,1497,53180
7539,1499,53185
7540,1505,53190
7541,1511,53195
7542,1512,53199
7543,1511,53204
7544,1510,53209
7545,1511,53215
7546,1508,53219
7547,1502,53224
7548,1493,53229
7549,1484,53234
7550,1481,53238
7551,1486,53243
7552,1494,53248
7553,1497,53254
7554,1497,53259
7555,1497,53263
7556,1504,53268
7557,1508,53273
7558,1507,53278
7559,1506,53282
7560,1506,53287
7561,1505,53292
7562,1497,53298
7563,1481,53302
7564,1470,53307
7565,1474,53312
7566,1483,53317
7567,1487,53322
